EMG 1,EMG 2,EMG 3,EMG 4,EMG 5,EMG 6,EMG 7,EMG 8,Timestamp
-2,-1,-2,1,-1,-1,-3,-1,2021-08-07 13:02:32.500489
-2,-3,-2,0,-1,-2,-3,0,2021-08-07 13:02:32.500489
0,-1,-1,1,4,1,-1,1,2021-08-07 13:02:32.501493
-3,-3,-4,-6,-1,-3,-1,0,2021-08-07 13:02:32.501493
1,1,0,5,3,2,1,0,2021-08-07 13:02:32.513489
0,-2,3,3,0,0,0,-1,2021-08-07 13:02:32.513489
-3,-5,-9,-11,-8,-4,-2,-4,2021-08-07 13:02:32.522492
0,0,0,0,-2,-1,0,-1,2021-08-07 13:02:32.522492
4,5,5,7,7,4,2,2,2021-08-07 13:02:32.537488
-1,1,2,-1,-1,-1,0,-1,2021-08-07 13:02:32.537488
-1,-4,-5,-7,-7,-4,-2,-3,2021-08-07 13:02:32.539492
-2,-5,-3,-3,-1,1,-3,-1,2021-08-07 13:02:32.539492
1,1,2,10,12,6,4,2,2021-08-07 13:02:32.567491
1,1,2,1,2,1,2,0,2021-08-07 13:02:32.567491
-3,-2,-3,-5,-4,-2,-2,-3,2021-08-07 13:02:32.569490
-2,0,-1,2,1,0,1,0,2021-08-07 13:02:32.569490
-1,0,-2,-6,-9,-5,-3,-1,2021-08-07 13:02:32.573490
-3,-3,-1,-7,-9,-7,-4,-1,2021-08-07 13:02:32.573490
1,2,3,7,11,8,4,3,2021-08-07 13:02:32.582491
0,1,1,-1,-2,2,1,-2,2021-08-07 13:02:32.582491
-3,-4,-4,-9,-13,-10,-5,-3,2021-08-07 13:02:32.605491
1,2,1,8,14,9,4,2,2021-08-07 13:02:32.605491
0,0,0,1,5,0,0,1,2021-08-07 13:02:32.606492
-2,-2,-5,-10,-5,-1,-2,-1,2021-08-07 13:02:32.606492
-1,-2,1,4,-1,-2,-1,-2,2021-08-07 13:02:32.620489
0,4,2,4,-2,-1,-1,-2,2021-08-07 13:02:32.620489
0,-2,-2,-3,7,5,3,1,2021-08-07 13:02:32.621492
-6,-9,-14,-29,-34,-21,-9,-5,2021-08-07 13:02:32.621492
1,0,3,9,19,16,9,2,2021-08-07 13:02:32.633490
-3,-2,-3,-6,-11,-7,-4,-3,2021-08-07 13:02:32.634492
-1,1,0,-2,-19,-15,-8,-3,2021-08-07 13:02:32.642492
3,4,6,15,25,18,9,5,2021-08-07 13:02:32.642492
-1,-1,-1,1,9,4,1,0,2021-08-07 13:02:32.657489
0,-1,1,1,1,-2,-2,-1,2021-08-07 13:02:32.657489
-3,-2,0,-1,0,-1,-3,-2,2021-08-07 13:02:32.659491
-1,-1,-2,-6,-18,-12,-7,-2,2021-08-07 13:02:32.659491
0,0,1,1,0,-2,-2,0,2021-08-07 13:02:32.680491
0,1,0,4,10,5,5,-1,2021-08-07 13:02:32.680491
-4,-5,-6,-18,-25,-15,-8,-5,2021-08-07 13:02:32.686490
0,2,1,10,14,8,4,1,2021-08-07 13:02:32.686490
0,1,0,-1,1,3,2,0,2021-08-07 13:02:32.693489
-1,-2,0,2,-3,-6,-4,-1,2021-08-07 13:02:32.693489
1,0,1,5,11,10,4,2,2021-08-07 13:02:32.702489
-3,-2,0,0,4,2,0,-1,2021-08-07 13:02:32.702489
1,1,0,2,0,-1,-1,1,2021-08-07 13:02:32.717488
-3,-4,-8,-17,-26,-15,-7,-4,2021-08-07 13:02:32.717488
2,1,3,9,17,13,7,2,2021-08-07 13:02:32.719490
0,2,1,-1,-7,-6,-3,0,2021-08-07 13:02:32.719490
1,-1,-1,-4,0,0,0,0,2021-08-07 13:02:32.740491
-2,-1,-1,-2,1,1,-1,-1,2021-08-07 13:02:32.740491
0,-1,0,6,6,2,0,-2,2021-08-07 13:02:32.741490
2,3,1,5,6,4,2,0,2021-08-07 13:02:32.741490
-3,-3,-2,-9,-13,-7,-5,-2,2021-08-07 13:02:32.762489
-2,-3,-2,-2,-2,1,-2,-1,2021-08-07 13:02:32.762489
-2,-2,-3,-5,-6,-4,-3,-3,2021-08-07 13:02:32.764492
-2,-3,-3,-9,-11,-10,-2,-3,2021-08-07 13:02:32.764492
1,1,3,4,3,4,2,0,2021-08-07 13:02:32.777490
0,0,1,6,13,7,2,0,2021-08-07 13:02:32.777490
-2,-2,-2,-4,-8,-6,-3,-2,2021-08-07 13:02:32.779490
-2,-1,-1,-3,-4,-4,-1,-2,2021-08-07 13:02:32.779490
-1,-1,-1,-2,-5,-4,-1,-2,2021-08-07 13:02:32.800490
1,-1,0,5,9,5,1,2,2021-08-07 13:02:32.800490
-1,-1,-3,-9,-11,-7,-3,-1,2021-08-07 13:02:32.801491
2,1,3,5,6,3,2,2,2021-08-07 13:02:32.801491
-1,-2,-4,-2,-2,-2,-2,0,2021-08-07 13:02:32.813493
-5,-5,-7,-11,-11,-6,-3,-4,2021-08-07 13:02:32.814492
-1,1,2,5,8,5,2,0,2021-08-07 13:02:32.822490
-3,-2,-2,2,-2,-2,-3,-3,2021-08-07 13:02:32.823490
-4,-4,0,1,-5,-3,-4,-5,2021-08-07 13:02:32.837489
5,9,8,12,28,18,10,5,2021-08-07 13:02:32.837489
1,4,4,1,5,1,-3,1,2021-08-07 13:02:32.843490
0,0,0,2,2,2,2,0,2021-08-07 13:02:32.844493
-2,0,-3,-5,-12,-8,-2,-3,2021-08-07 13:02:32.859491
-3,-5,-6,-15,-23,-13,-5,-3,2021-08-07 13:02:32.859491
-1,-2,-2,3,10,6,2,-1,2021-08-07 13:02:32.867492
-2,-2,-2,-8,-14,-10,-4,-1,2021-08-07 13:02:32.868491
1,1,1,7,16,9,4,2,2021-08-07 13:02:32.882490
-1,-2,0,4,3,3,1,0,2021-08-07 13:02:32.882490
-1,-1,-3,-3,-8,-6,-2,-2,2021-08-07 13:02:32.884495
0,-1,-2,0,1,1,-1,-1,2021-08-07 13:02:32.884495
1,0,1,2,5,4,2,1,2021-08-07 13:02:32.897491
0,-1,0,2,2,0,-2,-1,2021-08-07 13:02:32.897491
-2,-3,-3,-4,-6,-5,-2,-3,2021-08-07 13:02:32.899490
0,-1,-1,-2,-1,0,-1,-1,2021-08-07 13:02:32.899490
-2,-2,-1,-6,-8,-7,-2,-2,2021-08-07 13:02:32.920491
-1,-1,-1,-2,-1,-2,-1,-3,2021-08-07 13:02:32.920491
0,1,-2,-5,-5,-1,0,0,2021-08-07 13:02:32.921490
0,0,1,5,8,5,1,0,2021-08-07 13:02:32.921490
2,3,2,1,0,1,1,2,2021-08-07 13:02:32.933490
-2,-3,-2,-1,-2,-3,-3,-2,2021-08-07 13:02:32.933490
-2,-3,-2,-6,-11,-6,-4,-2,2021-08-07 13:02:32.942490
1,0,1,2,4,5,3,2,2021-08-07 13:02:32.942490
1,1,3,4,3,2,1,1,2021-08-07 13:02:32.957490
0,0,-1,-2,-3,-3,-2,1,2021-08-07 13:02:32.957490
1,0,1,4,4,2,0,1,2021-08-07 13:02:32.959492
0,-3,-2,-6,-7,-6,-2,-1,2021-08-07 13:02:32.959492
-2,-2,-5,-12,-9,-5,-2,-3,2021-08-07 13:02:32.980491
-1,-2,-1,-1,-5,-3,-2,-1,2021-08-07 13:02:32.980491
-1,-3,-3,0,0,-1,-2,-2,2021-08-07 13:02:32.982493
1,1,4,7,7,5,0,-1,2021-08-07 13:02:32.982493
-3,-3,-2,-1,-6,-4,-3,-2,2021-08-07 13:02:32.993490
1,3,1,1,4,3,3,1,2021-08-07 13:02:32.993490
-2,-3,-3,-6,-6,-3,-2,-2,2021-08-07 13:02:33.010490
0,-1,-3,-4,-6,-5,-2,-2,2021-08-07 13:02:33.010490
0,0,0,3,4,3,0,1,2021-08-07 13:02:33.017492
0,-1,0,0,-1,0,0,-1,2021-08-07 13:02:33.017492
-1,-1,2,3,2,3,-1,0,2021-08-07 13:02:33.019490
0,0,0,0,2,1,1,-1,2021-08-07 13:02:33.019490
-2,0,-2,-2,-4,-2,-2,-3,2021-08-07 13:02:33.047490
0,0,-1,3,6,2,1,0,2021-08-07 13:02:33.047490
3,2,1,3,2,2,4,1,2021-08-07 13:02:33.054490
-1,-1,-1,-1,2,1,0,-2,2021-08-07 13:02:33.054490
-1,-4,-2,-3,-2,-3,-1,-2,2021-08-07 13:02:33.055491
-1,-3,-3,-3,-6,-4,-4,-3,2021-08-07 13:02:33.055491
-2,1,0,-5,-4,-2,-1,-2,2021-08-07 13:02:33.062490
2,3,4,11,18,10,4,3,2021-08-07 13:02:33.062490
1,1,-2,0,0,-3,-2,0,2021-08-07 13:02:33.077490
-1,-1,0,-2,-3,-1,0,-2,2021-08-07 13:02:33.077490
-1,-4,-4,-5,-3,-3,-3,-1,2021-08-07 13:02:33.079492
-2,-2,-1,-2,-3,-2,0,-1,2021-08-07 13:02:33.079492
0,-1,-1,1,-1,0,0,-1,2021-08-07 13:02:33.100492
-1,-1,-1,-4,-6,-4,-1,-3,2021-08-07 13:02:33.100492
-1,-2,0,-2,-4,-3,-3,-3,2021-08-07 13:02:33.101499
-1,-2,1,-2,-2,-2,-2,-1,2021-08-07 13:02:33.101499
0,-3,0,0,1,-2,-2,0,2021-08-07 13:02:33.113488
1,1,2,6,9,6,3,0,2021-08-07 13:02:33.113488
0,0,-2,0,1,1,1,1,2021-08-07 13:02:33.122491
0,-2,-2,-3,-4,-2,-2,-1,2021-08-07 13:02:33.122491
0,-1,0,-4,4,0,0,-1,2021-08-07 13:02:33.138493
0,-2,-1,-2,-2,-1,0,1,2021-08-07 13:02:33.138493
-1,-1,1,4,4,0,-1,-1,2021-08-07 13:02:33.143490
-1,-1,-2,-5,-10,-6,-4,-2,2021-08-07 13:02:33.143490
-1,-1,-1,1,3,1,-2,-2,2021-08-07 13:02:33.160492
-2,-1,-1,-2,-2,0,-1,-1,2021-08-07 13:02:33.160492
-1,-1,-2,2,3,0,1,-3,2021-08-07 13:02:33.161492
0,0,-1,-1,-5,-4,0,-1,2021-08-07 13:02:33.161492
-2,-1,-1,-4,-9,-7,-3,-1,2021-08-07 13:02:33.182489
0,-2,-2,0,7,6,3,0,2021-08-07 13:02:33.182489
0,-1,0,-1,-2,-2,-3,-3,2021-08-07 13:02:33.184489
-1,-3,-4,-13,-20,-11,-5,-3,2021-08-07 13:02:33.184489
3,3,4,13,25,19,9,5,2021-08-07 13:02:33.205491
-1,0,1,5,5,0,-2,1,2021-08-07 13:02:33.205491
-3,-2,-5,-9,-10,-5,-4,-1,2021-08-07 13:02:33.206490
-1,1,0,7,10,5,-1,0,2021-08-07 13:02:33.206490
-1,-2,-2,-10,-18,-7,-5,-2,2021-08-07 13:02:33.218491
1,3,2,3,5,-1,0,1,2021-08-07 13:02:33.218491
-3,-3,-2,-6,-10,-7,-4,-2,2021-08-07 13:02:33.233488
0,0,0,8,19,13,6,2,2021-08-07 13:02:33.233488
-2,-2,-3,-10,-11,-7,-3,-3,2021-08-07 13:02:33.242490
-3,-2,-7,-9,-13,-9,-6,-5,2021-08-07 13:02:33.242490
1,2,0,3,0,0,2,2,2021-08-07 13:02:33.244490
3,5,7,18,39,28,13,5,2021-08-07 13:02:33.244490
-5,-5,0,-6,-5,-9,-7,-3,2021-08-07 13:02:33.265492
-2,-3,-2,-18,-34,-20,-8,-5,2021-08-07 13:02:33.265492
-1,0,3,11,5,1,0,1,2021-08-07 13:02:33.266490
0,0,2,-3,9,7,4,2,2021-08-07 13:02:33.266490
-1,-4,-11,-17,-4,3,2,-1,2021-08-07 13:02:33.278491
-1,-2,-4,1,2,-3,-4,-2,2021-08-07 13:02:33.279492
-3,-3,-3,-5,-12,-7,-4,-1,2021-08-07 13:02:33.287490
1,-1,-2,-1,-15,-12,-6,-1,2021-08-07 13:02:33.287490
1,1,2,10,14,9,3,1,2021-08-07 13:02:33.302490
0,-3,-1,-2,-6,-3,-1,0,2021-08-07 13:02:33.302490
0,3,2,7,17,11,5,3,2021-08-07 13:02:33.304490
-5,-7,-10,-19,-30,-20,-11,-6,2021-08-07 13:02:33.304490
2,3,3,6,1,4,3,3,2021-08-07 13:02:33.325492
0,-1,1,9,16,8,3,0,2021-08-07 13:02:33.325492
2,2,2,5,10,6,2,0,2021-08-07 13:02:33.326491
-2,-3,-3,-5,-4,-5,-1,-1,2021-08-07 13:02:33.326491
0,-1,-2,-4,-19,-14,-6,-1,2021-08-07 13:02:33.338490
0,0,1,6,10,9,3,1,2021-08-07 13:02:33.339492
-2,-3,-3,-11,-13,-9,-5,-3,2021-08-07 13:02:33.347491
0,1,-1,-1,-1,-2,-1,-1,2021-08-07 13:02:33.347491
0,-2,0,10,14,10,4,0,2021-08-07 13:02:33.362490
-2,0,0,3,7,2,0,-1,2021-08-07 13:02:33.362490
-1,0,-1,-4,-5,-3,-2,-2,2021-08-07 13:02:33.364491
-2,-1,-3,-2,-8,-3,-3,-1,2021-08-07 13:02:33.364491
-1,1,1,-1,-8,-6,-1,0,2021-08-07 13:02:33.385491
-2,-2,-2,-5,-3,-1,-1,-2,2021-08-07 13:02:33.385491
1,-1,-1,1,12,9,3,0,2021-08-07 13:02:33.386492
2,1,4,11,10,5,4,3,2021-08-07 13:02:33.387493
0,1,1,2,-1,-2,-2,-2,2021-08-07 13:02:33.407492
-1,0,-3,-12,-14,-9,-5,-2,2021-08-07 13:02:33.407492
-1,-1,-2,-4,-5,-3,-1,-1,2021-08-07 13:02:33.409491
1,1,1,2,2,0,1,1,2021-08-07 13:02:33.409491
-2,-4,-4,-9,-10,-7,-5,-1,2021-08-07 13:02:33.422493
-1,-1,2,4,-4,-4,-3,-1,2021-08-07 13:02:33.422493
3,2,3,11,20,16,6,3,2021-08-07 13:02:33.424491
-1,0,0,-2,0,-2,-1,-1,2021-08-07 13:02:33.424491
-3,-4,-7,-7,-10,-6,-1,-2,2021-08-07 13:02:33.445003
-3,-3,-2,-1,-2,-1,-2,-3,2021-08-07 13:02:33.445003
0,1,-1,-7,-7,-5,-3,-2,2021-08-07 13:02:33.451527
1,2,2,2,4,4,1,1,2021-08-07 13:02:33.451527
1,0,1,5,6,1,1,0,2021-08-07 13:02:33.458525
-3,-3,-3,-6,-7,-4,-2,0,2021-08-07 13:02:33.459526
-2,-4,-2,2,3,-1,-1,0,2021-08-07 13:02:33.467527
-1,-2,-1,-2,-2,-1,-1,-1,2021-08-07 13:02:33.467527
-2,1,0,-3,-3,-3,-2,-3,2021-08-07 13:02:33.482523
-1,-3,-4,-6,-10,-7,-4,-1,2021-08-07 13:02:33.482523
0,1,1,2,-1,1,1,1,2021-08-07 13:02:33.484528
1,3,2,12,24,12,5,2,2021-08-07 13:02:33.484528
0,0,1,4,5,0,-1,-1,2021-08-07 13:02:33.505527
3,1,1,6,12,9,6,3,2021-08-07 13:02:33.505527
-2,-3,-3,-8,-11,-8,-5,-3,2021-08-07 13:02:33.506527
0,-1,-1,-6,-10,-7,-3,-2,2021-08-07 13:02:33.506527
0,2,1,4,3,2,3,0,2021-08-07 13:02:33.518527
-3,-1,-2,-6,-5,-4,-5,-5,2021-08-07 13:02:33.519526
-1,-2,-2,-6,-6,-4,-1,-2,2021-08-07 13:02:33.527526
1,-2,0,0,-3,-2,-1,-2,2021-08-07 13:02:33.527526
2,0,-3,-3,-2,1,0,1,2021-08-07 13:02:33.542530
2,1,1,-2,1,-1,0,2,2021-08-07 13:02:33.543529
1,-2,0,4,10,5,3,-1,2021-08-07 13:02:33.544525
-1,-1,-1,2,0,-1,-2,-1,2021-08-07 13:02:33.544525
-3,-3,-1,-4,-8,-4,-3,-4,2021-08-07 13:02:33.565528
-1,-3,-1,6,7,5,2,-3,2021-08-07 13:02:33.565528
1,3,3,4,7,2,2,2,2021-08-07 13:02:33.566525
-1,-2,-3,-8,-12,-8,-5,-2,2021-08-07 13:02:33.566525
1,0,-1,4,8,3,-1,0,2021-08-07 13:02:33.578526
-1,-2,-2,-5,-10,-8,-5,-1,2021-08-07 13:02:33.578526
4,4,4,9,24,17,7,3,2021-08-07 13:02:33.587529
-1,-1,-2,-2,-1,-2,0,-1,2021-08-07 13:02:33.587529
-1,-1,-1,-4,-3,-2,-1,-2,2021-08-07 13:02:33.602526
-1,0,-2,0,-3,-3,-2,-2,2021-08-07 13:02:33.602526
-3,-3,-5,-3,-9,-7,-4,-3,2021-08-07 13:02:33.604526
-1,1,-1,0,-1,0,-1,1,2021-08-07 13:02:33.604526
2,2,2,7,9,4,3,1,2021-08-07 13:02:33.625526
0,0,-2,-6,1,1,1,0,2021-08-07 13:02:33.625526
-3,-1,-4,-9,-14,-9,-3,-3,2021-08-07 13:02:33.627525
-2,-3,-3,-1,0,0,0,-5,2021-08-07 13:02:33.627525
-2,-2,-1,0,0,-1,-1,-2,2021-08-07 13:02:33.647525
-1,-1,0,1,-1,0,-1,-1,2021-08-07 13:02:33.647525
0,-2,-2,-1,-5,-2,-3,-1,2021-08-07 13:02:33.649526
-1,-1,-2,-6,-4,-3,-1,0,2021-08-07 13:02:33.649526
-1,-1,0,4,3,0,0,0,2021-08-07 13:02:33.662764
-2,-1,-4,-9,-8,-3,-2,-2,2021-08-07 13:02:33.662764
1,0,2,6,8,4,0,-1,2021-08-07 13:02:33.664526
0,0,0,-1,-5,-4,-2,-1,2021-08-07 13:02:33.664526
1,2,0,3,10,6,3,0,2021-08-07 13:02:33.685046
-3,-1,-3,-4,-3,-4,-3,0,2021-08-07 13:02:33.686046
-2,-2,-3,-9,-18,-11,-4,-2,2021-08-07 13:02:33.691046
2,2,2,3,5,4,2,2,2021-08-07 13:02:33.691046
0,0,0,1,-2,0,0,1,2021-08-07 13:02:33.708046
-1,-2,-2,5,9,5,-1,-1,2021-08-07 13:02:33.708046
-2,-2,-2,-2,-2,-3,-3,-2,2021-08-07 13:02:33.709048
0,0,0,-1,-1,0,-1,0,2021-08-07 13:02:33.709048
-2,-3,-3,-11,-14,-8,-4,-1,2021-08-07 13:02:33.722051
0,1,2,10,12,7,3,0,2021-08-07 13:02:33.722051
0,-1,-2,-2,-4,-2,-2,0,2021-08-07 13:02:33.730045
-1,1,2,4,3,2,1,0,2021-08-07 13:02:33.730045
-1,-1,-1,0,-1,-3,-3,0,2021-08-07 13:02:33.745045
-2,-4,-5,-17,-20,-14,-6,-3,2021-08-07 13:02:33.745045
-1,0,2,10,16,9,5,1,2021-08-07 13:02:33.747047
0,1,1,7,7,2,1,2,2021-08-07 13:02:33.747047
0,-2,-1,5,7,2,2,0,2021-08-07 13:02:33.768048
0,2,2,4,0,1,2,1,2021-08-07 13:02:33.768048
-2,0,-2,-9,-11,-7,-3,-3,2021-08-07 13:02:33.769046
2,1,-1,8,5,1,1,-1,2021-08-07 13:02:33.769046
0,0,0,-2,-1,-3,-1,-1,2021-08-07 13:02:33.782046
-1,-1,-2,-21,-9,-2,-4,-3,2021-08-07 13:02:33.782046
-3,-7,-9,-19,-19,-7,0,1,2021-08-07 13:02:33.789046
-3,-2,-6,1,-1,-3,-6,-4,2021-08-07 13:02:33.789046
3,3,3,-1,-1,3,7,2,2021-08-07 13:02:33.813045
-5,-6,-7,-10,-18,-14,-8,-4,2021-08-07 13:02:33.813045
-3,-3,-3,-6,-15,-11,-5,-4,2021-08-07 13:02:33.814049
3,4,11,24,33,23,11,6,2021-08-07 13:02:33.814049
1,4,4,20,25,16,7,1,2021-08-07 13:02:33.828046
3,2,3,11,11,7,2,2,2021-08-07 13:02:33.828046
-1,0,-1,-6,-5,-6,-4,-2,2021-08-07 13:02:33.829047
-4,-6,-9,-18,-22,-15,-7,-5,2021-08-07 13:02:33.829047
2,3,4,9,16,7,1,2,2021-08-07 13:02:33.842049
0,1,1,2,1,2,2,1,2021-08-07 13:02:33.842049
-1,-3,-1,4,2,-2,-2,-2,2021-08-07 13:02:33.849046
0,-1,-1,-8,-8,-6,-2,-2,2021-08-07 13:02:33.849046
-3,-5,-7,-20,-30,-19,-11,-4,2021-08-07 13:02:33.865043
-2,-1,0,9,14,8,4,0,2021-08-07 13:02:33.865043
2,2,1,9,10,7,3,2,2021-08-07 13:02:33.867045
-3,0,-1,-7,-5,-1,-1,0,2021-08-07 13:02:33.867045
-3,-4,-4,-6,-6,-5,-4,-3,2021-08-07 13:02:33.888049
-2,-1,-3,1,-6,-5,-3,-1,2021-08-07 13:02:33.888049
2,2,0,1,2,2,1,0,2021-08-07 13:02:33.889048
1,1,1,-5,2,2,2,1,2021-08-07 13:02:33.889048
-2,-5,-5,-12,-23,-16,-7,-4,2021-08-07 13:02:33.909046
1,2,2,4,11,10,4,2,2021-08-07 13:02:33.909046
0,1,2,9,15,10,4,1,2021-08-07 13:02:33.918047
-1,-3,-4,-8,-13,-8,-4,-3,2021-08-07 13:02:33.918047
-2,-1,-2,1,2,1,1,-2,2021-08-07 13:02:33.933048
0,-3,-2,-6,-8,-4,-2,0,2021-08-07 13:02:33.933048
0,0,1,-2,2,4,0,0,2021-08-07 13:02:33.934046
1,-1,-2,-3,-3,-2,-3,-2,2021-08-07 13:02:33.934046
-1,-2,-2,-5,-5,-1,-2,-3,2021-08-07 13:02:33.947046
-1,1,1,8,7,1,0,-1,2021-08-07 13:02:33.947046
-1,-2,-2,-4,-2,-3,-1,-2,2021-08-07 13:02:33.955046
-2,-1,-2,-7,-12,-5,-2,1,2021-08-07 13:02:33.955046
2,1,3,13,21,11,4,2,2021-08-07 13:02:33.962046
-1,-2,-1,-2,-4,-3,-1,0,2021-08-07 13:02:33.962046
1,2,3,4,3,1,0,1,2021-08-07 13:02:33.969046
-1,-2,-1,-5,-5,-3,-1,-1,2021-08-07 13:02:33.969046
-1,-2,-4,-5,-7,-5,-3,-1,2021-08-07 13:02:33.993047
0,-1,3,9,8,2,0,0,2021-08-07 13:02:33.993047
0,-1,-4,-8,-13,-8,-2,-2,2021-08-07 13:02:33.994046
2,4,4,8,13,8,3,2,2021-08-07 13:02:33.994046
-3,-1,-1,-3,-4,-3,-1,1,2021-08-07 13:02:34.008045
0,-3,-4,-3,1,-1,-1,-2,2021-08-07 13:02:34.008045
-1,0,3,5,4,1,0,1,2021-08-07 13:02:34.009044
0,-2,-2,-1,-3,-3,-1,-3,2021-08-07 13:02:34.009044
-2,1,-1,-4,-5,-2,-1,-1,2021-08-07 13:02:34.022046
1,1,2,5,5,3,1,1,2021-08-07 13:02:34.022046
0,-1,-1,4,5,1,-1,-1,2021-08-07 13:02:34.029048
-1,-2,-1,0,-1,-1,0,-2,2021-08-07 13:02:34.029048
0,-2,0,0,1,0,-2,-2,2021-08-07 13:02:34.045046
-3,-2,-4,-12,-15,-10,-4,-3,2021-08-07 13:02:34.045046
1,1,-1,-2,-5,-1,-2,-1,2021-08-07 13:02:34.047046
-2,0,-2,-5,0,-2,-2,-1,2021-08-07 13:02:34.047046
-1,0,0,-3,-10,-5,-2,-1,2021-08-07 13:02:34.068048
2,2,3,12,21,12,6,2,2021-08-07 13:02:34.068048
0,-2,-2,-2,-2,-1,-1,1,2021-08-07 13:02:34.069049
1,1,1,-3,-8,-3,-2,1,2021-08-07 13:02:34.069049
-1,-2,-2,10,14,6,1,-2,2021-08-07 13:02:34.082045
-1,-1,-2,-5,-2,-3,0,1,2021-08-07 13:02:34.082045
-2,0,-1,-1,-3,-1,0,-2,2021-08-07 13:02:34.089047
0,-1,-2,0,-3,-3,0,-2,2021-08-07 13:02:34.089047
-2,-2,-4,-7,-11,-9,-5,-2,2021-08-07 13:02:34.106046
0,2,0,-6,-2,1,-2,1,2021-08-07 13:02:34.106046
0,1,1,5,9,4,1,0,2021-08-07 13:02:34.107047
-2,-1,-1,2,1,0,0,-1,2021-08-07 13:02:34.107047
-1,-1,0,-2,3,0,0,-2,2021-08-07 13:02:34.127047
-3,-3,-3,-2,-8,-4,-4,-3,2021-08-07 13:02:34.128046
0,1,-1,-10,-13,-5,-2,-1,2021-08-07 13:02:34.129047
-2,-2,-1,1,1,0,-1,-1,2021-08-07 13:02:34.129047
-1,-1,-2,-1,0,1,0,-1,2021-08-07 13:02:34.141048
0,0,2,6,6,0,0,1,2021-08-07 13:02:34.142045
-1,-5,-2,1,4,3,0,-1,2021-08-07 13:02:34.150045
0,1,-1,4,3,-2,0,-1,2021-08-07 13:02:34.151047
0,0,-5,-16,-15,-6,-3,0,2021-08-07 13:02:34.165046
3,5,5,13,19,8,3,1,2021-08-07 13:02:34.165046
1,1,0,3,1,-1,-1,0,2021-08-07 13:02:34.167047
-2,-1,-1,-5,0,-1,-2,-2,2021-08-07 13:02:34.167047
-4,-3,-2,-9,-13,-7,-4,-2,2021-08-07 13:02:34.188046
-4,-5,-9,-18,-25,-13,-7,-5,2021-08-07 13:02:34.188046
1,1,2,3,11,8,3,1,2021-08-07 13:02:34.202046
1,2,3,7,12,8,4,2,2021-08-07 13:02:34.202046
1,-1,1,3,3,1,2,0,2021-08-07 13:02:34.203045
-2,-4,-2,-3,-4,-3,-2,-1,2021-08-07 13:02:34.203045
-3,0,-2,4,7,3,1,1,2021-08-07 13:02:34.210047
0,-1,1,-1,-3,-1,0,1,2021-08-07 13:02:34.210047
1,2,2,6,5,3,2,-1,2021-08-07 13:02:34.225049
-1,-2,-4,-7,-7,-6,-2,-2,2021-08-07 13:02:34.225049
-1,-2,-6,-12,-15,-11,-6,-3,2021-08-07 13:02:34.231046
1,4,3,4,1,3,2,2,2021-08-07 13:02:34.231046
2,2,3,9,13,5,2,0,2021-08-07 13:02:34.255043
0,-3,-5,-8,-15,-7,-3,-1,2021-08-07 13:02:34.255043
0,2,1,-3,-4,0,1,0,2021-08-07 13:02:34.257045
2,0,2,9,17,9,3,1,2021-08-07 13:02:34.257045
-1,0,-1,6,3,0,0,-2,2021-08-07 13:02:34.261046
-1,-1,-2,-9,-1,-1,-2,-1,2021-08-07 13:02:34.261046
-2,-2,-3,-9,-11,-5,-3,-2,2021-08-07 13:02:34.270045
-1,-3,-4,-6,-10,-7,-4,-2,2021-08-07 13:02:34.270045
1,-1,1,2,2,1,1,2,2021-08-07 13:02:34.285047
-1,0,1,3,-1,-2,0,0,2021-08-07 13:02:34.285047
-1,-1,-3,0,-1,-2,-1,-1,2021-08-07 13:02:34.287050
-1,-3,-1,2,-2,-3,-2,0,2021-08-07 13:02:34.287050
2,0,2,0,3,2,0,1,2021-08-07 13:02:34.309046
0,1,-5,-8,-1,4,1,0,2021-08-07 13:02:34.309046
-2,-3,-2,-1,-5,-4,-2,-2,2021-08-07 13:02:34.314047
-2,2,1,9,16,11,5,-1,2021-08-07 13:02:34.314047
-3,-2,0,6,4,1,-2,-3,2021-08-07 13:02:34.321045
0,2,3,10,1,-2,0,0,2021-08-07 13:02:34.322046
-1,-1,-3,-3,-4,-4,-2,-1,2021-08-07 13:02:34.330045
-3,-3,-4,-20,-19,-10,-7,-3,2021-08-07 13:02:34.330045
1,0,-4,-5,-6,-4,-1,-1,2021-08-07 13:02:34.345045
-1,-1,1,-2,0,0,-1,0,2021-08-07 13:02:34.345045
2,4,7,25,15,7,4,2,2021-08-07 13:02:34.347045
0,-2,-4,-12,-1,-1,-1,-1,2021-08-07 13:02:34.347045
-3,-4,-3,-10,-10,-6,-5,-2,2021-08-07 13:02:34.368048
0,0,-3,12,9,7,2,0,2021-08-07 13:02:34.368048
0,3,7,2,0,1,2,1,2021-08-07 13:02:34.370046
0,-1,-8,-18,-11,-6,-3,-1,2021-08-07 13:02:34.370046
-4,-3,-1,-5,1,1,-2,-3,2021-08-07 13:02:34.381047
0,-3,-5,-1,1,-1,-1,1,2021-08-07 13:02:34.381047
0,0,3,-1,0,-2,-2,0,2021-08-07 13:02:34.406047
-1,1,4,11,3,0,1,0,2021-08-07 13:02:34.407045
0,1,0,4,0,-1,2,0,2021-08-07 13:02:34.407045
-1,-2,-2,-3,-3,1,0,-2,2021-08-07 13:02:34.407045
0,-2,-5,-4,2,1,1,0,2021-08-07 13:02:34.409046
-2,-2,-2,-4,-9,-6,-3,-1,2021-08-07 13:02:34.409046
0,0,0,3,2,0,-1,-1,2021-08-07 13:02:34.428048
1,0,1,4,2,1,1,0,2021-08-07 13:02:34.428048
-1,0,2,-3,1,0,0,-2,2021-08-07 13:02:34.429046
-2,-3,-2,-2,-3,-3,-1,-1,2021-08-07 13:02:34.429046
-1,-2,-9,0,-2,0,0,-1,2021-08-07 13:02:34.441045
0,-2,3,-1,-1,-1,0,1,2021-08-07 13:02:34.441045
1,1,-2,-9,-4,-1,-1,0,2021-08-07 13:02:34.458047
-2,-1,-2,9,0,-1,-1,-1,2021-08-07 13:02:34.458047
-4,-3,-4,0,-5,-4,-4,-3,2021-08-07 13:02:34.466048
-1,-1,0,-25,-9,-5,-4,-3,2021-08-07 13:02:34.466048
-1,-1,-8,1,3,2,1,0,2021-08-07 13:02:34.467045
0,3,4,-3,2,2,-1,-1,2021-08-07 13:02:34.468049
-1,0,2,3,-4,-3,0,0,2021-08-07 13:02:34.488048
0,-1,0,6,-9,-6,-2,-1,2021-08-07 13:02:34.488048
0,1,1,4,8,5,2,1,2021-08-07 13:02:34.489047
2,2,-3,-12,-2,1,0,0,2021-08-07 13:02:34.489047
0,3,2,13,15,7,2,1,2021-08-07 13:02:34.510046
-2,-1,-1,0,-2,-2,-1,-1,2021-08-07 13:02:34.510046
-2,-3,-3,-5,-13,-8,-5,-2,2021-08-07 13:02:34.535048
-2,-3,-5,6,-4,-4,-2,-1,2021-08-07 13:02:34.535048
0,2,3,2,4,5,2,0,2021-08-07 13:02:34.535048
-1,2,-1,-10,-3,0,-1,-2,2021-08-07 13:02:34.536047
-2,-4,-4,-5,-6,-4,-3,-1,2021-08-07 13:02:34.539046
0,0,2,3,9,8,1,0,2021-08-07 13:02:34.539046
-2,-4,-2,-12,-8,-6,-5,-2,2021-08-07 13:02:34.548045
1,4,2,11,8,3,1,2,2021-08-07 13:02:34.548045
-1,-1,0,-3,-6,-4,-2,-2,2021-08-07 13:02:34.549046
-2,-3,-2,-9,-14,-6,-3,-3,2021-08-07 13:02:34.549046
2,2,3,11,17,10,5,1,2021-08-07 13:02:34.561046
0,0,0,-1,0,0,0,-1,2021-08-07 13:02:34.561046
-1,-1,-1,0,1,-1,-2,-1,2021-08-07 13:02:34.570046
2,1,1,3,-2,-2,-1,1,2021-08-07 13:02:34.570046
-6,-9,-11,-16,-17,-8,-7,-4,2021-08-07 13:02:34.585048
0,2,4,10,7,4,3,1,2021-08-07 13:02:34.585048
1,0,1,-5,0,2,2,-2,2021-08-07 13:02:34.587051
0,3,5,5,10,5,3,1,2021-08-07 13:02:34.587051
-1,-1,-3,-5,-2,-2,-2,-2,2021-08-07 13:02:34.608045
-1,-3,-5,-3,-3,-2,-4,-2,2021-08-07 13:02:34.608045
-1,-2,0,1,-1,-2,-1,-1,2021-08-07 13:02:34.609045
-2,0,-2,2,-1,-1,0,-1,2021-08-07 13:02:34.609045
-1,-2,-1,-6,-5,-3,-1,-1,2021-08-07 13:02:34.630045
-3,-1,1,1,-2,-2,-1,-2,2021-08-07 13:02:34.630045
0,0,-1,-1,-4,-3,-1,-1,2021-08-07 13:02:34.632045
0,-1,-2,1,3,1,2,0,2021-08-07 13:02:34.632045
-1,0,0,-3,-6,-5,-3,0,2021-08-07 13:02:34.645048
-1,-2,-2,-5,-9,-5,-3,-2,2021-08-07 13:02:34.645048
2,4,3,16,28,18,8,5,2021-08-07 13:02:34.647048
-1,-3,-4,-1,-1,-1,-2,0,2021-08-07 13:02:34.647048
1,1,2,0,-2,-1,-1,1,2021-08-07 13:02:34.667046
-1,-1,-4,-2,-5,-3,-2,-2,2021-08-07 13:02:34.667046
-2,0,0,-6,-14,-9,-5,-2,2021-08-07 13:02:34.683047
-2,-4,-2,-5,-3,-2,-2,-2,2021-08-07 13:02:34.683047
-1,-1,2,6,4,-1,-1,-2,2021-08-07 13:02:34.691045
-1,-3,-2,-4,1,0,0,-1,2021-08-07 13:02:34.691045
1,1,1,2,4,2,1,1,2021-08-07 13:02:34.696047
0,0,-1,2,-2,-1,-1,-2,2021-08-07 13:02:34.696047
0,0,-1,-8,-8,-4,-2,-1,2021-08-07 13:02:34.705045
-1,-2,2,1,2,1,-1,-1,2021-08-07 13:02:34.705045
-2,-4,-2,-6,-15,-9,-3,-3,2021-08-07 13:02:34.707048
-2,-2,-3,-2,-2,-2,-2,-1,2021-08-07 13:02:34.707048
3,3,3,5,10,5,3,3,2021-08-07 13:02:34.728048
-2,-3,-5,-6,-6,-3,-2,-2,2021-08-07 13:02:34.728048
0,1,-1,7,11,6,3,0,2021-08-07 13:02:34.729047
-2,-1,-2,-9,-14,-11,-5,-2,2021-08-07 13:02:34.729047
1,1,0,8,11,6,2,1,2021-08-07 13:02:34.758047
0,-2,-1,-8,-10,-7,-3,-3,2021-08-07 13:02:34.758047
-2,-3,-2,-1,-1,-1,-1,-1,2021-08-07 13:02:34.759047
-1,2,1,5,10,6,4,3,2021-08-07 13:02:34.759047
-2,-2,-1,0,-5,-3,-1,-2,2021-08-07 13:02:34.764046
0,0,-2,0,5,3,2,0,2021-08-07 13:02:34.765045
-4,-5,-5,-16,-18,-12,-7,-4,2021-08-07 13:02:34.779047
4,4,5,7,6,6,2,3,2021-08-07 13:02:34.779047
-1,0,-2,-5,-3,0,-1,-2,2021-08-07 13:02:34.803045
-1,0,-3,-1,-9,-8,-3,0,2021-08-07 13:02:34.803045
1,1,1,1,6,5,1,2,2021-08-07 13:02:34.812049
-1,0,-1,5,9,3,1,-1,2021-08-07 13:02:34.812049
-4,-5,-7,-11,-14,-10,-6,-4,2021-08-07 13:02:34.813045
4,5,7,11,20,14,7,2,2021-08-07 13:02:34.813045
0,1,2,3,2,0,-1,0,2021-08-07 13:02:34.816046
0,-1,-2,-3,-5,-2,-1,-1,2021-08-07 13:02:34.816046
-1,-2,-4,-6,-8,-5,-3,-1,2021-08-07 13:02:34.824049
-3,-6,-6,-9,-12,-7,-5,-3,2021-08-07 13:02:34.825049
2,1,0,4,7,3,2,1,2021-08-07 13:02:34.831047
1,2,4,6,3,2,3,1,2021-08-07 13:02:34.831047
1,2,3,-3,4,2,2,1,2021-08-07 13:02:34.863050
-2,-2,-2,0,2,0,0,-1,2021-08-07 13:02:34.863050
-1,-1,-1,-2,-3,-3,-2,-1,2021-08-07 13:02:34.864046
-3,-5,-5,-8,-12,-9,-5,-3,2021-08-07 13:02:34.864046
-1,-2,0,3,2,2,0,0,2021-08-07 13:02:34.870045
0,0,0,2,0,-2,0,1,2021-08-07 13:02:34.870045
1,0,-1,-1,-2,0,-1,1,2021-08-07 13:02:34.872048
1,3,4,8,9,3,0,-1,2021-08-07 13:02:34.872048
-1,1,-1,1,-2,-1,-1,-1,2021-08-07 13:02:34.884046
0,1,3,-4,-1,-2,-3,0,2021-08-07 13:02:34.885051
-1,-2,-6,-11,-5,-1,-1,-2,2021-08-07 13:02:34.899045
-2,-3,-4,-4,-4,-2,-1,-1,2021-08-07 13:02:34.899045
1,1,1,0,-2,0,0,2,2021-08-07 13:02:34.909045
0,1,4,5,5,2,3,0,2021-08-07 13:02:34.909045
-1,0,0,-1,-2,-1,-2,-1,2021-08-07 13:02:34.914047
-1,-2,-9,-8,-6,-3,-2,0,2021-08-07 13:02:34.914047
1,0,2,6,5,2,1,1,2021-08-07 13:02:34.930046
-2,-2,-3,1,-1,-2,1,1,2021-08-07 13:02:34.930046
1,0,4,1,1,1,2,-2,2021-08-07 13:02:34.932045
0,1,1,0,-2,-3,-3,-2,2021-08-07 13:02:34.932045
-4,-4,-5,-8,-8,-5,-3,-3,2021-08-07 13:02:34.944046
1,4,1,7,7,4,2,-1,2021-08-07 13:02:34.945045
1,1,2,5,4,3,1,1,2021-08-07 13:02:34.959046
-2,-3,-1,-3,-5,-5,-1,0,2021-08-07 13:02:34.959046
-2,-3,-6,-16,-8,-5,-4,-2,2021-08-07 13:02:34.968049
0,-1,-1,-1,-1,0,-2,-1,2021-08-07 13:02:34.968049
2,3,1,7,9,5,5,3,2021-08-07 13:02:34.969047
-1,-2,0,0,0,-2,-2,-1,2021-08-07 13:02:34.970046
-3,-1,-1,-4,-4,-2,-2,-3,2021-08-07 13:02:34.990046
-1,0,-3,-2,-5,-2,-3,-1,2021-08-07 13:02:34.990046
0,2,0,-2,-4,-1,0,1,2021-08-07 13:02:34.992045
0,-2,-1,-2,-2,-1,-1,0,2021-08-07 13:02:34.992045
0,-1,-2,3,1,-1,2,1,2021-08-07 13:02:35.013046
-2,-5,-6,0,0,1,-1,-2,2021-08-07 13:02:35.013046
-4,-2,-3,-12,-5,-1,-1,-1,2021-08-07 13:02:35.015045
1,2,6,7,7,5,2,-1,2021-08-07 13:02:35.015045
-1,-3,-1,6,5,2,-2,-2,2021-08-07 13:02:35.028047
-1,2,3,10,3,-2,-1,-1,2021-08-07 13:02:35.028047
2,0,6,-1,3,1,0,-1,2021-08-07 13:02:35.029046
-1,-4,-12,-12,-12,-7,-5,-2,2021-08-07 13:02:35.029046
-1,-1,-2,3,-1,-1,-2,-3,2021-08-07 13:02:35.050045
0,1,3,2,0,2,3,2,2021-08-07 13:02:35.050045
0,0,-2,-16,-3,-2,-1,0,2021-08-07 13:02:35.052047
-1,-1,4,-3,-2,-1,0,0,2021-08-07 13:02:35.052047
0,-1,-4,3,-1,-2,-1,-2,2021-08-07 13:02:35.065044
0,-2,-3,6,1,-1,0,-1,2021-08-07 13:02:35.065044
-1,3,6,31,10,0,-1,0,2021-08-07 13:02:35.073046
-1,0,2,-3,-2,1,-1,-3,2021-08-07 13:02:35.073046
-4,-5,-9,-56,-25,-9,-6,-1,2021-08-07 13:02:35.088049
-1,-3,-8,-10,-7,-2,-3,-1,2021-08-07 13:02:35.088049
-2,-2,-6,-3,-3,-1,-2,-2,2021-08-07 13:02:35.089047
2,1,3,16,6,0,1,1,2021-08-07 13:02:35.089047
4,4,8,23,13,9,5,1,2021-08-07 13:02:35.110048
0,2,5,-4,8,5,3,-1,2021-08-07 13:02:35.110048
0,-2,-3,3,-1,-3,-1,-2,2021-08-07 13:02:35.112045
-1,-2,-2,0,-6,-4,-1,0,2021-08-07 13:02:35.112045
-2,0,3,10,7,3,2,-1,2021-08-07 13:02:35.124046
-1,-5,-10,-28,-16,-10,-4,-3,2021-08-07 13:02:35.124046
-1,-2,-4,5,7,5,2,-1,2021-08-07 13:02:35.150049
-1,-3,0,-4,1,1,-2,-1,2021-08-07 13:02:35.150049
0,2,0,1,-1,0,-2,1,2021-08-07 13:02:35.151050
2,2,4,10,4,1,-1,0,2021-08-07 13:02:35.151050
-1,-2,0,-6,-7,-3,0,0,2021-08-07 13:02:35.154046
0,0,-4,-9,-4,-4,-1,0,2021-08-07 13:02:35.154046
-1,-3,-3,4,2,-1,0,-1,2021-08-07 13:02:35.169045
-1,-1,0,3,2,0,-1,-1,2021-08-07 13:02:35.169045
0,0,-2,-7,-5,0,-2,0,2021-08-07 13:02:35.178045
-2,-2,-3,0,1,0,0,-1,2021-08-07 13:02:35.178045
4,5,5,9,5,5,3,5,2021-08-07 13:02:35.184046
-2,-2,-2,5,3,2,-1,-1,2021-08-07 13:02:35.184046
0,-1,4,-2,0,0,0,-1,2021-08-07 13:02:35.193045
0,0,-4,-1,2,1,0,1,2021-08-07 13:02:35.193045
-3,-4,-7,-7,-3,-4,-2,-4,2021-08-07 13:02:35.208046
0,-1,1,0,-2,1,0,1,2021-08-07 13:02:35.208046
-2,-2,-2,-6,-11,-5,-3,-1,2021-08-07 13:02:35.209046
-1,0,4,10,4,2,0,-2,2021-08-07 13:02:35.209046
2,1,4,6,4,1,1,1,2021-08-07 13:02:35.230045
0,0,-1,-14,-6,-4,-3,-1,2021-08-07 13:02:35.230045
-1,-2,-2,0,0,-2,-1,-2,2021-08-07 13:02:35.232046
1,2,2,0,2,2,1,0,2021-08-07 13:02:35.232046
-2,-2,-4,1,2,-2,0,-2,2021-08-07 13:02:35.244045
-1,-1,-4,-5,-2,-2,0,-1,2021-08-07 13:02:35.244045
2,1,-1,-2,-6,-3,-2,0,2021-08-07 13:02:35.253046
-1,-4,-3,-7,-8,-3,-2,-1,2021-08-07 13:02:35.253046
-1,-1,1,2,4,2,-2,-2,2021-08-07 13:02:35.267047
-1,0,-2,6,3,2,1,1,2021-08-07 13:02:35.268048
-1,0,-1,5,4,3,2,1,2021-08-07 13:02:35.274045
0,1,5,8,-5,-3,-1,-2,2021-08-07 13:02:35.274045
-3,-1,-5,-13,-4,-3,-3,-1,2021-08-07 13:02:35.290046
1,0,-2,-10,-7,-3,-2,-1,2021-08-07 13:02:35.290046
-1,-4,-3,0,0,-1,-1,-1,2021-08-07 13:02:35.292045
-2,-1,-1,-1,4,2,-1,-2,2021-08-07 13:02:35.292045
1,-2,4,2,-4,-1,-2,-1,2021-08-07 13:02:35.313049
0,0,1,3,1,0,-2,1,2021-08-07 13:02:35.313049
-1,2,1,2,3,0,1,1,2021-08-07 13:02:35.314045
-1,-3,-2,0,1,0,0,0,2021-08-07 13:02:35.314045
-2,-1,0,-6,-10,-4,-2,-2,2021-08-07 13:02:35.328045
-1,0,2,3,3,-1,0,0,2021-08-07 13:02:35.328045
-1,-1,-1,0,-2,0,0,-1,2021-08-07 13:02:35.329045
-1,-2,-3,-12,-5,-1,0,1,2021-08-07 13:02:35.329045
-1,1,0,1,-3,-5,-1,0,2021-08-07 13:02:35.350046
2,1,1,6,2,4,1,1,2021-08-07 13:02:35.350046
0,1,1,5,5,0,0,-1,2021-08-07 13:02:35.352046
-2,-1,-3,-8,-6,-2,-3,-3,2021-08-07 13:02:35.352046
-4,-4,-4,-4,-5,-5,-2,-4,2021-08-07 13:02:35.364045
2,2,0,-1,-1,1,1,1,2021-08-07 13:02:35.364045
-1,0,1,5,4,-1,1,0,2021-08-07 13:02:35.373046
0,0,-1,-8,-2,1,-1,0,2021-08-07 13:02:35.373046
0,0,1,-2,-6,-3,-2,0,2021-08-07 13:02:35.388045
-4,-7,-7,-11,-21,-16,-6,-5,2021-08-07 13:02:35.388045
0,-1,0,3,13,10,4,1,2021-08-07 13:02:35.389048
2,2,1,2,1,-3,-1,1,2021-08-07 13:02:35.389048
-2,-2,-3,-11,-3,-1,-1,1,2021-08-07 13:02:35.418048
0,0,2,10,12,5,1,-3,2021-08-07 13:02:35.418048
1,0,0,1,-6,-2,-2,-1,2021-08-07 13:02:35.419049
-1,-1,-1,1,-1,-2,-1,-1,2021-08-07 13:02:35.419049
-2,-3,-3,-4,-5,-2,-1,-2,2021-08-07 13:02:35.424046
0,0,0,-4,-5,-2,-1,1,2021-08-07 13:02:35.424046
0,0,0,-2,2,1,0,0,2021-08-07 13:02:35.433045
-1,-3,0,1,0,-3,-3,-1,2021-08-07 13:02:35.433045
0,0,0,3,3,2,-1,0,2021-08-07 13:02:35.456048
1,3,5,10,9,5,4,0,2021-08-07 13:02:35.456048
1,-1,-3,-12,-9,-4,-2,1,2021-08-07 13:02:35.461107
-2,0,-4,-1,0,-2,-2,-2,2021-08-07 13:02:35.461107
-1,-3,-4,0,-4,-4,-3,-2,2021-08-07 13:02:35.470095
1,-1,4,8,3,3,1,1,2021-08-07 13:02:35.470095
1,2,0,-4,6,2,0,1,2021-08-07 13:02:35.472098
-1,-2,-9,-13,-5,0,-1,-1,2021-08-07 13:02:35.472098
1,1,6,4,4,2,0,-1,2021-08-07 13:02:35.484098
-2,-1,-5,-5,-2,-3,-1,-1,2021-08-07 13:02:35.484098
0,-1,1,6,3,3,1,0,2021-08-07 13:02:35.493096
-1,0,2,3,0,-1,-2,1,2021-08-07 13:02:35.493096
-1,1,-1,0,-4,-2,-2,-1,2021-08-07 13:02:35.509096
-1,0,0,-3,0,-1,0,-1,2021-08-07 13:02:35.509096
-1,0,1,-2,-5,-3,-3,-2,2021-08-07 13:02:35.511096
1,0,1,4,5,3,2,-2,2021-08-07 13:02:35.511096
0,0,0,3,3,3,0,-1,2021-08-07 13:02:35.530094
-2,-1,-3,-5,-6,-5,-2,-1,2021-08-07 13:02:35.530094
-3,-4,-5,-8,-5,-4,-3,-3,2021-08-07 13:02:35.532096
1,2,2,3,4,2,0,-1,2021-08-07 13:02:35.532096
0,1,2,-2,-4,-1,0,1,2021-08-07 13:02:35.553098
-1,-2,-4,-3,-2,0,-1,1,2021-08-07 13:02:35.553098
-3,-3,-5,-4,-7,-5,-2,-3,2021-08-07 13:02:35.554095
0,1,1,5,3,2,0,2,2021-08-07 13:02:35.554095
0,1,0,0,4,0,0,2,2021-08-07 13:02:35.568096
-2,0,1,3,0,0,-2,-1,2021-08-07 13:02:35.568096
-1,-1,0,-8,-9,-3,-2,-1,2021-08-07 13:02:35.570097
-1,-2,-1,-9,-9,-5,-1,-2,2021-08-07 13:02:35.570097
-1,0,-7,2,4,2,0,-1,2021-08-07 13:02:35.590095
2,-2,0,-1,0,1,1,1,2021-08-07 13:02:35.590095
0,0,0,17,11,4,2,0,2021-08-07 13:02:35.592095
-2,-2,-1,-11,-9,-5,-2,-3,2021-08-07 13:02:35.592095
0,0,-1,-9,-8,-5,-2,-1,2021-08-07 13:02:35.612095
0,1,-1,4,2,0,0,0,2021-08-07 13:02:35.613094
-2,-3,-1,-2,-2,-1,-2,-1,2021-08-07 13:02:35.620096
0,2,2,8,14,6,3,3,2021-08-07 13:02:35.621096
1,-2,-1,1,2,1,0,0,2021-08-07 13:02:35.628095
-2,-1,1,-2,-2,-3,-1,-1,2021-08-07 13:02:35.628095
1,1,2,0,-3,1,1,0,2021-08-07 13:02:35.629095
-2,-1,-2,1,-2,-2,-2,-1,2021-08-07 13:02:35.629095
-2,-2,2,9,-2,-2,0,-2,2021-08-07 13:02:35.650097
-2,1,-4,-12,-3,1,0,0,2021-08-07 13:02:35.651099
-1,-4,-4,-10,-8,-7,-4,-2,2021-08-07 13:02:35.652097
1,-1,1,-2,-6,0,-1,-2,2021-08-07 13:02:35.652097
0,-1,1,0,4,2,1,1,2021-08-07 13:02:35.696612
0,1,0,3,1,0,-1,0,2021-08-07 13:02:35.696612
0,1,-1,2,1,2,1,2,2021-08-07 13:02:35.697613
-2,-3,-4,-8,-3,-3,-3,-3,2021-08-07 13:02:35.698613
-3,-3,-3,-2,-5,-4,-2,-2,2021-08-07 13:02:35.698613
0,-2,-2,-3,-2,0,-2,-3,2021-08-07 13:02:35.698613
-1,0,-3,-5,-2,-3,0,0,2021-08-07 13:02:35.702613
-1,0,2,4,1,-2,-2,0,2021-08-07 13:02:35.702613
-1,2,1,-1,2,0,-1,0,2021-08-07 13:02:35.710614
-3,-4,-4,-2,-3,-3,-3,-1,2021-08-07 13:02:35.710614
-1,0,1,2,0,0,0,0,2021-08-07 13:02:35.711614
1,1,-1,2,0,0,1,1,2021-08-07 13:02:35.711614
-1,-2,-1,-6,-7,-3,-3,-4,2021-08-07 13:02:35.732616
0,0,0,1,5,4,1,0,2021-08-07 13:02:35.732616
-1,-2,-3,-3,-6,-5,-3,-2,2021-08-07 13:02:35.734612
-1,0,1,3,2,0,0,-1,2021-08-07 13:02:35.734612
0,-2,0,1,-2,-1,-1,0,2021-08-07 13:02:35.746614
0,0,1,4,3,0,1,1,2021-08-07 13:02:35.746614
-1,1,-1,-4,-2,0,-2,2,2021-08-07 13:02:35.753614
-2,-1,-1,-5,-7,-4,-2,-1,2021-08-07 13:02:35.753614
-1,-1,-2,-2,-1,-2,1,0,2021-08-07 13:02:35.769613
2,1,2,-4,1,3,1,0,2021-08-07 13:02:35.769613
-1,-3,-1,1,1,-1,-1,-3,2021-08-07 13:02:35.784614
1,1,0,0,2,1,1,1,2021-08-07 13:02:35.784614
0,-2,1,0,0,0,0,-1,2021-08-07 13:02:35.792612
0,0,-2,-5,-8,-4,0,1,2021-08-07 13:02:35.792612
-3,-3,-4,-7,-2,-2,0,-1,2021-08-07 13:02:35.794614
-4,-6,-3,0,-1,0,-1,-1,2021-08-07 13:02:35.794614
-1,0,-1,-1,-2,-3,-1,-1,2021-08-07 13:02:35.806613
0,4,5,4,3,1,0,1,2021-08-07 13:02:35.807614
-3,-4,-1,-6,-11,-8,-7,-6,2021-08-07 13:02:35.813613
2,3,3,3,7,6,2,1,2021-08-07 13:02:35.813613
0,-2,-1,3,6,2,0,0,2021-08-07 13:02:35.830613
0,-1,0,0,0,0,0,0,2021-08-07 13:02:35.830613
0,2,-1,2,-2,1,1,2,2021-08-07 13:02:35.831614
-2,-3,-3,-5,-8,-4,-3,-2,2021-08-07 13:02:35.831614
0,2,-1,-5,1,2,0,1,2021-08-07 13:02:35.859613
0,-1,1,4,4,1,1,-1,2021-08-07 13:02:35.860615
0,-3,-1,0,1,1,0,0,2021-08-07 13:02:35.861613
-3,-2,-2,-4,-6,-5,-3,-3,2021-08-07 13:02:35.861613
-1,-2,-1,5,2,-2,0,1,2021-08-07 13:02:35.866612
-2,1,-1,-3,-2,-1,-1,1,2021-08-07 13:02:35.867613
0,1,2,1,6,5,2,1,2021-08-07 13:02:35.873612
-2,-2,-3,1,1,1,-1,-1,2021-08-07 13:02:35.874612
-1,0,0,-2,-3,-3,-5,-2,2021-08-07 13:02:35.890612
0,-2,-1,-2,-5,-1,-2,-1,2021-08-07 13:02:35.890612
2,2,3,8,9,5,3,0,2021-08-07 13:02:35.892613
-3,-5,-6,-8,-9,-7,-3,-3,2021-08-07 13:02:35.892613
-2,-2,-2,-11,-11,-5,-2,0,2021-08-07 13:02:35.912612
-1,-1,1,5,3,1,0,-2,2021-08-07 13:02:35.912612
1,2,2,3,11,6,3,2,2021-08-07 13:02:35.914612
-1,-2,-1,-2,2,0,-1,-2,2021-08-07 13:02:35.914612
-2,-2,-3,-4,-5,-4,-2,-2,2021-08-07 13:02:35.926612
-1,-2,-4,-11,-13,-7,-4,-2,2021-08-07 13:02:35.927612
1,2,3,7,5,3,1,2,2021-08-07 13:02:35.933612
-1,1,-1,-3,-3,-2,-2,-1,2021-08-07 13:02:35.933612
-2,-2,-2,-6,-7,-4,-3,-1,2021-08-07 13:02:35.957613
0,3,3,11,18,9,5,1,2021-08-07 13:02:35.957613
-4,-5,-5,-5,-9,-8,-4,-4,2021-08-07 13:02:35.965614
0,0,0,-2,0,0,0,2,2021-08-07 13:02:35.965614
4,3,4,1,5,4,3,0,2021-08-07 13:02:35.972612
-4,-5,-6,-11,-24,-16,-8,-2,2021-08-07 13:02:35.972612
2,0,3,10,18,15,6,2,2021-08-07 13:02:35.974613
-4,-2,1,3,2,-1,0,-3,2021-08-07 13:02:35.974613
-1,1,0,5,6,4,2,0,2021-08-07 13:02:35.986654
0,0,-2,-4,-3,-2,0,0,2021-08-07 13:02:35.986654
-3,-2,-3,-11,-19,-12,-6,-2,2021-08-07 13:02:35.993654
-1,-2,-2,-3,-7,-3,-2,-1,2021-08-07 13:02:35.993654
-1,0,0,4,12,8,2,1,2021-08-07 13:02:36.009654
0,0,1,-1,1,0,0,0,2021-08-07 13:02:36.010658
0,0,1,0,1,-1,-1,1,2021-08-07 13:02:36.011655
-1,-1,0,3,4,2,2,0,2021-08-07 13:02:36.011655
-1,0,0,0,-5,-3,-1,-2,2021-08-07 13:02:36.032654
-3,-2,-6,-6,-6,-3,-2,-3,2021-08-07 13:02:36.032654
2,3,2,2,-1,0,2,0,2021-08-07 13:02:36.034657
0,1,1,4,4,1,-1,0,2021-08-07 13:02:36.034657
-1,-1,-1,-4,-8,-4,-2,-3,2021-08-07 13:02:36.046657
3,1,2,-2,7,5,2,2,2021-08-07 13:02:36.046657
0,0,-1,-1,-1,-2,-2,-2,2021-08-07 13:02:36.072655
0,0,-1,-1,-3,-1,-1,0,2021-08-07 13:02:36.072655
0,0,0,4,0,-1,-1,-1,2021-08-07 13:02:36.072655
0,-1,-1,3,2,2,0,-1,2021-08-07 13:02:36.072655
-4,-6,-6,-6,-6,-6,-4,-2,2021-08-07 13:02:36.077655
-1,-2,-3,-2,-1,-2,-2,0,2021-08-07 13:02:36.077655
0,-1,1,4,3,3,2,2,2021-08-07 13:02:36.092657
0,1,2,2,-1,0,0,0,2021-08-07 13:02:36.092657
-1,1,0,0,2,2,3,-1,2021-08-07 13:02:36.093656
2,1,1,-1,0,-2,-2,0,2021-08-07 13:02:36.094654
-1,-5,-6,-8,-5,-3,-3,-2,2021-08-07 13:02:36.106654
-2,0,1,3,0,-3,-2,-3,2021-08-07 13:02:36.106654
-3,-3,-3,-9,-15,-8,-5,-2,2021-08-07 13:02:36.122656
2,2,4,5,12,6,5,0,2021-08-07 13:02:36.122656
-2,-1,-1,2,5,0,-1,0,2021-08-07 13:02:36.129654
2,2,2,4,4,3,2,2,2021-08-07 13:02:36.130656
0,0,-2,-4,-7,-4,-3,-1,2021-08-07 13:02:36.131654
-2,-3,-1,-1,4,2,1,0,2021-08-07 13:02:36.131654
-2,-4,-3,-5,-4,-2,-3,-1,2021-08-07 13:02:36.152654
-1,-1,-2,3,2,0,0,-1,2021-08-07 13:02:36.152654
0,1,3,1,1,1,-2,0,2021-08-07 13:02:36.154658
-1,-2,-2,-5,-9,-7,-3,0,2021-08-07 13:02:36.154658
-1,-1,-1,-2,-4,-3,-2,-2,2021-08-07 13:02:36.166656
-1,-1,-1,-1,0,0,1,0,2021-08-07 13:02:36.166656
0,1,1,7,11,6,3,0,2021-08-07 13:02:36.175660
-2,1,-1,1,1,-1,-2,-2,2021-08-07 13:02:36.175660
2,2,2,3,7,3,0,2,2021-08-07 13:02:36.190655
0,-1,0,-3,-4,-3,-4,-1,2021-08-07 13:02:36.190655
0,1,-1,-1,-2,-1,0,1,2021-08-07 13:02:36.191654
-2,-3,-1,0,-5,-3,-2,-3,2021-08-07 13:02:36.191654
-3,-3,-3,-7,-6,-4,-2,-2,2021-08-07 13:02:36.212654
2,2,-1,-6,-3,2,2,0,2021-08-07 13:02:36.212654
-1,0,3,0,1,-2,-2,-1,2021-08-07 13:02:36.214655
-1,0,-1,-4,-2,1,-1,-2,2021-08-07 13:02:36.214655
0,0,0,5,0,0,2,-1,2021-08-07 13:02:36.226655
-2,-3,0,2,2,0,-2,-2,2021-08-07 13:02:36.226655
-3,-4,-5,-5,-5,-3,-1,-3,2021-08-07 13:02:36.250657
-2,-3,-2,-5,-6,-4,-4,-1,2021-08-07 13:02:36.251654
3,2,6,6,4,2,1,0,2021-08-07 13:02:36.251654
0,-1,0,-1,-1,1,-2,1,2021-08-07 13:02:36.251654
-2,-1,-2,-2,-6,-3,-3,-1,2021-08-07 13:02:36.253656
-1,-1,0,2,1,1,-1,-1,2021-08-07 13:02:36.253656
-2,-1,-3,-4,-3,2,0,-1,2021-08-07 13:02:36.272655
-2,0,-1,4,6,1,1,0,2021-08-07 13:02:36.272655
-2,-3,-4,-2,-4,-3,-3,0,2021-08-07 13:02:36.274656
-1,-4,-3,-5,-3,-3,-2,-1,2021-08-07 13:02:36.274656
1,1,0,1,2,-1,-1,0,2021-08-07 13:02:36.286655
0,0,0,0,0,1,2,-1,2021-08-07 13:02:36.286655
0,1,1,-1,5,3,1,1,2021-08-07 13:02:36.312656
0,-2,-1,-2,-2,-3,-2,-2,2021-08-07 13:02:36.312656
-1,1,0,-2,-2,0,-1,-1,2021-08-07 13:02:36.312656
-4,-4,-5,-2,-3,-3,-3,-2,2021-08-07 13:02:36.313656
2,1,1,-1,1,0,1,0,2021-08-07 13:02:36.316657
0,0,-2,-2,-2,-1,-2,-1,2021-08-07 13:02:36.316657
0,-1,0,0,1,0,2,-2,2021-08-07 13:02:36.348655
0,2,2,3,8,5,2,1,2021-08-07 13:02:36.348655
-2,0,0,1,-1,0,-1,-1,2021-08-07 13:02:36.349655
-2,-3,-1,-4,-4,-2,-2,0,2021-08-07 13:02:36.350657
2,1,2,0,0,1,2,1,2021-08-07 13:02:36.350657
-2,-2,-2,-2,-3,-3,-2,0,2021-08-07 13:02:36.350657
-1,-2,-2,-4,-3,-2,-4,-2,2021-08-07 13:02:36.362656
-2,-1,-2,4,0,-1,-2,-1,2021-08-07 13:02:36.362656
-1,-1,-3,-4,0,-1,-1,0,2021-08-07 13:02:36.370659
1,0,2,2,0,1,0,1,2021-08-07 13:02:36.370659
-1,-3,-2,-3,-2,-1,-3,0,2021-08-07 13:02:36.371656
-1,0,-2,0,0,1,-1,0,2021-08-07 13:02:36.371656
-1,-1,-1,-1,-3,0,-2,-2,2021-08-07 13:02:36.400655
0,-2,-2,-3,-4,-2,-2,-1,2021-08-07 13:02:36.400655
-1,0,0,-1,-5,-4,-1,-1,2021-08-07 13:02:36.401653
1,2,3,2,6,5,4,1,2021-08-07 13:02:36.401653
0,0,0,5,8,5,2,1,2021-08-07 13:02:36.406658
-1,1,-1,0,-2,-1,1,-1,2021-08-07 13:02:36.406658
-4,-5,-3,-1,-2,-1,-3,-3,2021-08-07 13:02:36.415658
3,3,2,0,2,1,2,1,2021-08-07 13:02:36.415658
0,2,2,2,3,0,-1,2,2021-08-07 13:02:36.429652
0,0,0,-3,-2,-3,-1,1,2021-08-07 13:02:36.430656
-2,-2,-3,-1,-4,-1,-1,-2,2021-08-07 13:02:36.431654
-4,-6,-3,-2,-1,-3,-2,-3,2021-08-07 13:02:36.431654
0,-1,0,-1,-7,-4,-2,-1,2021-08-07 13:02:36.452655
2,0,4,5,13,9,4,1,2021-08-07 13:02:36.452655
2,1,0,3,4,3,2,0,2021-08-07 13:02:36.454655
0,-1,-4,-3,-5,-3,-2,-1,2021-08-07 13:02:36.454655
-1,-1,-1,4,2,-1,0,-1,2021-08-07 13:02:36.466654
0,-2,0,2,0,0,0,-2,2021-08-07 13:02:36.466654
-1,1,-1,-2,1,-1,0,-1,2021-08-07 13:02:36.475657
0,-2,-2,-3,-7,-3,-1,0,2021-08-07 13:02:36.475657
-1,-2,-2,-6,-8,-5,-3,-2,2021-08-07 13:02:36.489654
1,2,3,2,3,2,1,1,2021-08-07 13:02:36.490656
0,-2,-1,1,4,1,1,-1,2021-08-07 13:02:36.491653
-1,-2,-2,-2,0,-2,-1,-2,2021-08-07 13:02:36.491653
1,2,0,-3,-3,-2,0,-1,2021-08-07 13:02:36.512654
-1,0,-2,-2,-5,-1,-2,-1,2021-08-07 13:02:36.512654
-2,-5,-4,-3,-5,-5,-1,-3,2021-08-07 13:02:36.514655
2,4,5,3,0,2,-1,1,2021-08-07 13:02:36.514655
-1,-3,-1,3,6,3,1,-1,2021-08-07 13:02:36.534654
-2,-2,-5,-7,-9,-6,-2,-2,2021-08-07 13:02:36.535657
-2,-3,0,1,3,2,0,-1,2021-08-07 13:02:36.536656
1,0,0,6,8,3,1,2,2021-08-07 13:02:36.536656
-2,-2,-1,-4,-3,-2,-1,1,2021-08-07 13:02:36.549657
0,-1,-2,-2,-5,-3,0,1,2021-08-07 13:02:36.549657
1,-2,0,0,-5,-1,-2,0,2021-08-07 13:02:36.557655
-5,-5,-5,-7,-7,-9,-7,-7,2021-08-07 13:02:36.557655
2,4,6,6,6,3,0,2,2021-08-07 13:02:36.587656
0,0,0,2,3,0,-1,-1,2021-08-07 13:02:36.587656
-2,-1,-4,-8,-9,-6,-1,-2,2021-08-07 13:02:36.589656
-2,-2,-3,-2,-1,0,0,0,2021-08-07 13:02:36.589656
-1,-1,-3,-7,-10,-6,-2,-1,2021-08-07 13:02:36.594654
-2,-5,-3,-6,-7,-5,-3,-2,2021-08-07 13:02:36.595656
2,3,2,5,5,3,2,3,2021-08-07 13:02:36.596656
-2,-1,0,-2,-6,-4,-1,-1,2021-08-07 13:02:36.596656
-4,-4,-6,-6,-8,-3,-4,-3,2021-08-07 13:02:36.609656
1,1,1,7,12,6,3,1,2021-08-07 13:02:36.609656
-2,-2,-3,2,5,1,0,-2,2021-08-07 13:02:36.617656
4,4,4,0,3,4,5,2,2021-08-07 13:02:36.618655
0,0,-4,-4,-8,-6,-1,0,2021-08-07 13:02:36.640655
1,-1,1,-1,-3,-3,0,3,2021-08-07 13:02:36.640655
-1,-4,-3,-3,-1,2,-2,-1,2021-08-07 13:02:36.641654
0,3,7,13,21,18,22,11,2021-08-07 13:02:36.641654
9,6,7,13,20,29,30,14,2021-08-07 13:02:36.655657
4,2,0,-4,-7,-12,-23,-6,2021-08-07 13:02:36.655657
-39,-23,-19,-25,-48,-72,-73,-51,2021-08-07 13:02:36.660654
-6,-6,-8,-12,-15,-12,-15,-8,2021-08-07 13:02:36.661660
1,1,4,8,17,15,9,5,2021-08-07 13:02:36.669654
6,3,2,7,11,16,21,14,2021-08-07 13:02:36.669654
16,13,11,14,19,35,43,27,2021-08-07 13:02:36.683655
49,20,14,14,28,81,99,72,2021-08-07 13:02:36.683655
23,15,11,7,5,-7,-37,-5,2021-08-07 13:02:36.692654
-92,-46,-37,-40,-68,-94,-93,-100,2021-08-07 13:02:36.692654
-35,-27,-23,-25,-29,-12,12,-7,2021-08-07 13:02:36.694656
17,5,4,10,17,43,48,21,2021-08-07 13:02:36.694656
30,24,18,23,35,45,36,37,2021-08-07 13:02:36.715654
-10,-5,-2,-2,-7,-18,-21,-9,2021-08-07 13:02:36.715654
38,15,11,5,11,54,78,56,2021-08-07 13:02:36.716654
44,18,7,14,25,15,-10,7,2021-08-07 13:02:36.716654
-63,-15,-12,-20,-39,-84,-71,-89,2021-08-07 13:02:36.729654
-69,-37,-24,-31,-48,-62,-56,-54,2021-08-07 13:02:36.729654
-5,-2,-4,1,4,18,34,18,2021-08-07 13:02:36.736656
22,9,10,7,13,44,53,41,2021-08-07 13:02:36.736656
39,14,8,4,4,17,21,25,2021-08-07 13:02:36.752654
29,17,13,7,12,21,19,20,2021-08-07 13:02:36.752654
6,9,11,22,27,18,7,1,2021-08-07 13:02:36.754656
-8,-1,0,2,9,-16,-25,-16,2021-08-07 13:02:36.754656
-17,-12,-12,-6,-4,-18,-27,-18,2021-08-07 13:02:36.775657
8,3,1,-7,-11,10,24,14,2021-08-07 13:02:36.775657
15,8,6,6,19,13,-6,4,2021-08-07 13:02:36.776654
-36,-19,-16,-16,-33,-59,-66,-47,2021-08-07 13:02:36.776654
-19,-13,-8,-18,-34,-20,-3,-3,2021-08-07 13:02:36.788655
35,11,8,23,42,58,55,44,2021-08-07 13:02:36.789657
5,8,11,26,14,-10,-25,-14,2021-08-07 13:02:36.797656
-27,-4,-2,26,15,-23,-31,-28,2021-08-07 13:02:36.797656
-5,-8,-20,-45,-31,1,21,11,2021-08-07 13:02:36.812657
26,7,7,-21,0,17,20,21,2021-08-07 13:02:36.812657
-6,3,6,14,17,-6,-23,-17,2021-08-07 13:02:36.813656
-20,-6,-8,0,-6,-9,-7,-13,2021-08-07 13:02:36.814656
-8,-22,-28,-46,-48,-21,-3,0,2021-08-07 13:02:36.835655
7,-5,-24,-22,-17,-1,-1,4,2021-08-07 13:02:36.835655
-11,-9,-5,-39,-31,-24,-21,-12,2021-08-07 13:02:36.836655
-9,-5,-5,-1,-9,-10,-4,-6,2021-08-07 13:02:36.836655
16,25,36,80,82,44,24,14,2021-08-07 13:02:36.848654
11,15,21,40,30,16,12,8,2021-08-07 13:02:36.848654
1,0,-4,1,-7,-2,3,1,2021-08-07 13:02:36.857656
-27,-36,-41,-89,-89,-63,-38,-24,2021-08-07 13:02:36.857656
-2,-4,-5,-4,2,3,1,2,2021-08-07 13:02:36.872658
5,7,8,12,16,12,10,5,2021-08-07 13:02:36.872658
7,7,9,19,12,9,3,4,2021-08-07 13:02:36.874654
-2,2,4,-9,-14,-13,-14,-7,2021-08-07 13:02:36.874654
-4,-3,1,20,29,16,8,0,2021-08-07 13:02:36.895655
10,10,13,23,29,20,16,13,2021-08-07 13:02:36.895655
5,2,-3,-3,2,-2,0,-1,2021-08-07 13:02:36.896654
-8,-4,-5,-17,-28,-23,-17,-9,2021-08-07 13:02:36.896654
-8,-8,-4,-6,-10,-8,-4,-4,2021-08-07 13:02:36.908653
11,10,9,15,15,15,14,10,2021-08-07 13:02:36.908653
-3,-2,-2,-5,-6,-8,-10,-5,2021-08-07 13:02:36.917655
-3,-2,3,6,3,-1,1,-3,2021-08-07 13:02:36.917655
2,3,2,-6,0,9,8,6,2021-08-07 13:02:36.932655
-4,-7,-10,-28,-25,-11,-7,-4,2021-08-07 13:02:36.932655
-6,-5,-1,0,8,2,-3,-5,2021-08-07 13:02:36.934655
0,2,6,20,16,4,3,0,2021-08-07 13:02:36.934655
2,1,1,10,6,5,3,2,2021-08-07 13:02:36.955659
2,4,3,-5,-12,-5,-2,0,2021-08-07 13:02:36.955659
-3,-3,-5,3,1,-1,-2,-2,2021-08-07 13:02:36.956655
3,4,6,12,10,7,3,2,2021-08-07 13:02:36.956655
-2,-2,-1,-8,-2,-4,-3,-3,2021-08-07 13:02:36.968656
-1,-5,-5,-7,-8,-3,-1,0,2021-08-07 13:02:36.968656
-4,-7,-8,-16,-17,-8,-6,-2,2021-08-07 13:02:36.977658
4,11,12,22,28,13,5,5,2021-08-07 13:02:36.977658
-4,-4,-4,-7,-13,-4,-1,-2,2021-08-07 13:02:36.992654
2,2,5,19,33,19,8,4,2021-08-07 13:02:36.992654
-1,-1,-3,-5,-6,-6,-4,-1,2021-08-07 13:02:36.993653
-6,-3,-5,-11,-8,-7,-3,-4,2021-08-07 13:02:36.994656
-2,-6,-5,-12,-21,-12,-3,3,2021-08-07 13:02:37.014654
3,2,1,8,14,9,4,3,2021-08-07 13:02:37.015654
-2,-1,-4,-4,-5,-4,-5,-4,2021-08-07 13:02:37.016655
-2,-2,-1,-8,-7,-2,-2,-1,2021-08-07 13:02:37.016655
-1,0,1,14,9,4,1,-2,2021-08-07 13:02:37.028654
0,1,0,-1,-5,-3,-1,-1,2021-08-07 13:02:37.028654
-1,-3,-7,-15,-15,-9,-6,-3,2021-08-07 13:02:37.037654
-1,0,-1,-2,2,3,1,1,2021-08-07 13:02:37.037654
-2,-4,-3,-1,1,1,-1,-3,2021-08-07 13:02:37.052653
-2,-3,-2,1,-2,-5,-2,-2,2021-08-07 13:02:37.052653
3,4,4,0,-5,-2,1,2,2021-08-07 13:02:37.054656
-1,-2,-3,-7,-3,-1,-1,-2,2021-08-07 13:02:37.054656
-3,-2,-3,-10,-13,-7,-4,-4,2021-08-07 13:02:37.075654
2,1,2,7,4,3,2,0,2021-08-07 13:02:37.075654
-2,-1,-1,6,1,-1,-2,-2,2021-08-07 13:02:37.081657
0,-2,-2,1,-1,-3,-2,-2,2021-08-07 13:02:37.081657
-2,-3,-4,-4,1,1,-3,-4,2021-08-07 13:02:37.097655
-1,0,-1,-7,-8,-3,-2,-1,2021-08-07 13:02:37.097655
1,1,2,0,-1,1,-1,0,2021-08-07 13:02:37.098655
-2,-1,0,7,8,5,0,-2,2021-08-07 13:02:37.099655
4,1,1,-1,0,-2,1,2,2021-08-07 13:02:37.112654
-1,0,0,1,5,4,3,2,2021-08-07 13:02:37.112654
-4,-3,-3,-7,-14,-11,-5,-4,2021-08-07 13:02:37.113658
1,-1,0,1,-2,1,-1,-2,2021-08-07 13:02:37.114656
1,0,1,17,12,4,1,1,2021-08-07 13:02:37.135653
-1,-3,-7,-22,-7,-2,-1,0,2021-08-07 13:02:37.135653
-2,-3,-2,1,10,3,2,-1,2021-08-07 13:02:37.136654
-3,-5,-4,-9,-9,-7,-5,-3,2021-08-07 13:02:37.136654
0,-1,-1,-6,-12,-5,-2,-1,2021-08-07 13:02:37.148656
0,2,3,7,-3,-1,0,-2,2021-08-07 13:02:37.148656
1,2,2,7,7,6,1,1,2021-08-07 13:02:37.157657
5,7,7,4,9,2,2,4,2021-08-07 13:02:37.157657
-1,-1,-1,-1,-4,-2,-1,1,2021-08-07 13:02:37.173655
-4,-5,-5,-3,-2,-4,-4,-4,2021-08-07 13:02:37.173655
-3,-3,-4,-11,-10,-6,-4,-4,2021-08-07 13:02:37.174655
-4,-3,-1,4,5,-1,-1,-2,2021-08-07 13:02:37.174655
2,3,4,-1,-4,-2,0,2,2021-08-07 13:02:37.195654
3,3,3,9,10,7,3,3,2021-08-07 13:02:37.195654
0,-2,0,-1,8,7,3,1,2021-08-07 13:02:37.197658
-4,-4,-4,-4,-6,-5,-5,-4,2021-08-07 13:02:37.197658
-1,-1,-1,-7,0,1,-2,-3,2021-08-07 13:02:37.208654
4,4,6,14,6,-1,1,1,2021-08-07 13:02:37.208654
3,3,1,14,-1,0,1,2,2021-08-07 13:02:37.217653
-1,-2,-5,-8,0,1,0,-1,2021-08-07 13:02:37.217653
-4,-2,-4,-15,-17,-10,-6,-3,2021-08-07 13:02:37.232654
-4,-8,-8,-15,-22,-12,-7,-6,2021-08-07 13:02:37.232654
7,11,13,24,35,19,10,5,2021-08-07 13:02:37.234656
1,1,1,-4,-11,-4,0,0,2021-08-07 13:02:37.234656
-1,0,3,0,4,2,2,-1,2021-08-07 13:02:37.262653
-3,-1,-6,-3,-10,-8,-4,-2,2021-08-07 13:02:37.262653
-2,-8,-9,-10,-10,-9,-4,-3,2021-08-07 13:02:37.263656
-2,-2,-3,-14,-22,-9,-4,-4,2021-08-07 13:02:37.264656
7,9,10,27,44,24,12,6,2021-08-07 13:02:37.268656
-1,1,2,7,3,-3,-2,0,2021-08-07 13:02:37.268656
-4,-1,-3,-8,-8,-5,-2,-1,2021-08-07 13:02:37.277656
1,0,-2,4,5,1,-1,1,2021-08-07 13:02:37.277656
-3,-5,-8,-12,-17,-9,-5,-5,2021-08-07 13:02:37.292654
0,-3,1,-6,-4,-2,0,-1,2021-08-07 13:02:37.292654
0,1,4,2,-4,-1,-2,1,2021-08-07 13:02:37.294660
2,2,4,16,16,7,3,0,2021-08-07 13:02:37.294660
-1,-3,-7,-11,-14,-7,-4,-2,2021-08-07 13:02:37.314656
-1,-4,-5,-3,0,2,1,-1,2021-08-07 13:02:37.315654
-3,-4,-5,-7,-13,-10,-6,-4,2021-08-07 13:02:37.316655
-1,-2,-2,-8,-7,0,-1,-1,2021-08-07 13:02:37.316655
3,9,5,11,13,10,5,5,2021-08-07 13:02:37.328654
-1,-1,-2,-12,-12,-7,-4,-2,2021-08-07 13:02:37.328654
0,-1,0,1,1,0,-3,-1,2021-08-07 13:02:37.337654
-4,-7,-5,-12,-15,-11,-7,-4,2021-08-07 13:02:37.337654
-1,-2,-2,15,22,13,5,0,2021-08-07 13:02:37.352655
2,3,4,9,12,7,3,2,2021-08-07 13:02:37.352655
-2,-1,1,4,3,0,-1,-2,2021-08-07 13:02:37.354656
0,2,0,5,4,2,0,2,2021-08-07 13:02:37.354656
-2,-3,-3,-15,-20,-10,-4,-3,2021-08-07 13:02:37.374655
-1,-2,-2,-9,-4,0,0,-1,2021-08-07 13:02:37.375655
-3,-2,-1,-7,-9,-9,-5,-5,2021-08-07 13:02:37.376655
-1,-1,0,5,6,4,1,0,2021-08-07 13:02:37.376655
-2,-1,-2,-1,-8,-5,-3,-2,2021-08-07 13:02:37.388654
-1,-2,-3,3,5,1,-1,-1,2021-08-07 13:02:37.388654
4,4,4,1,-1,2,4,3,2021-08-07 13:02:37.397656
2,3,2,3,8,5,3,3,2021-08-07 13:02:37.397656
1,0,3,9,3,-4,-1,-2,2021-08-07 13:02:37.412654
-5,-6,-7,-6,-16,-11,-7,-4,2021-08-07 13:02:37.412654
3,6,8,19,26,16,7,5,2021-08-07 13:02:37.414655
-2,-3,-8,-11,-11,1,-2,-3,2021-08-07 13:02:37.414655
-7,-14,-17,-45,-30,-15,-10,-8,2021-08-07 13:02:37.442656
3,3,5,-1,6,4,-1,1,2021-08-07 13:02:37.442656
-4,-7,-8,-6,-6,-7,-2,-3,2021-08-07 13:02:37.444654
0,1,5,18,8,0,2,1,2021-08-07 13:02:37.444654
4,6,5,22,16,10,5,4,2021-08-07 13:02:37.457656
-1,-4,-4,-6,-4,-1,-1,-2,2021-08-07 13:02:37.457656
-2,-4,-3,-11,-5,0,-2,-2,2021-08-07 13:02:37.458654
1,2,8,7,10,3,0,-2,2021-08-07 13:02:37.459655
-4,-1,-8,-10,-14,-8,-6,-5,2021-08-07 13:02:37.472655
0,2,3,8,6,2,0,0,2021-08-07 13:02:37.472655
-2,-5,-8,-12,-21,-13,-9,-5,2021-08-07 13:02:37.474657
2,2,3,-2,3,8,6,3,2021-08-07 13:02:37.474657
2,4,9,19,27,10,7,1,2021-08-07 13:02:37.495653
5,8,6,5,8,9,5,4,2021-08-07 13:02:37.495653
-2,-2,-3,-5,-3,-3,-2,-1,2021-08-07 13:02:37.496653
-6,-9,-9,-15,-19,-14,-9,-5,2021-08-07 13:02:37.496653
3,6,8,14,5,0,3,4,2021-08-07 13:02:37.517656
1,0,0,9,7,2,0,1,2021-08-07 13:02:37.517656
1,-1,-1,-5,0,1,-1,-2,2021-08-07 13:02:37.519656
-5,-7,-8,-22,-8,-5,-4,-2,2021-08-07 13:02:37.519656
-3,-6,-6,-11,-7,-2,-3,-1,2021-08-07 13:02:37.532655
0,2,1,11,4,2,1,-1,2021-08-07 13:02:37.532655
1,4,7,11,12,6,4,2,2021-08-07 13:02:37.534659
-1,0,-2,11,2,0,-1,-2,2021-08-07 13:02:37.534659
2,2,2,-9,-5,-2,0,2,2021-08-07 13:02:37.555656
-4,-6,-8,-18,-13,-8,-6,-2,2021-08-07 13:02:37.555656
0,-3,-4,-1,6,3,0,0,2021-08-07 13:02:37.556653
3,3,8,16,23,12,7,2,2021-08-07 13:02:37.556653
-2,-1,2,2,-9,-4,-4,-2,2021-08-07 13:02:37.577654
0,2,2,5,3,2,0,0,2021-08-07 13:02:37.577654
-3,-6,-8,-14,-14,-8,-3,-4,2021-08-07 13:02:37.579657
2,3,1,-5,-6,-2,-1,2,2021-08-07 13:02:37.579657
-3,-4,-2,-3,1,0,0,0,2021-08-07 13:02:37.591654
0,1,-1,-2,5,3,2,-1,2021-08-07 13:02:37.592656
3,2,4,2,-4,-2,-2,2,2021-08-07 13:02:37.598655
-2,-2,-5,2,-3,-4,-3,-3,2021-08-07 13:02:37.598655
-1,0,-1,-7,-8,-3,-1,-2,2021-08-07 13:02:37.614654
0,0,2,-2,-5,-1,0,0,2021-08-07 13:02:37.615654
3,4,-1,11,12,7,5,3,2021-08-07 13:02:37.616654
3,3,-1,-1,6,4,3,3,2021-08-07 13:02:37.616654
-2,-5,-6,-11,-6,-4,-2,-2,2021-08-07 13:02:37.637654
-4,-5,-5,-3,-2,-4,-3,-5,2021-08-07 13:02:37.637654
-1,-3,0,-1,-4,-3,-3,-3,2021-08-07 13:02:37.639657
-2,-3,-5,-13,-29,-19,-8,-2,2021-08-07 13:02:37.639657
4,4,7,23,35,24,9,4,2021-08-07 13:02:37.652656
1,1,2,6,12,8,4,1,2021-08-07 13:02:37.652656
0,1,-1,3,2,0,1,1,2021-08-07 13:02:37.658654
-2,-3,-6,-12,-3,-4,-2,-3,2021-08-07 13:02:37.658654
-6,-7,-1,-20,-29,-19,-10,-7,2021-08-07 13:02:37.675657
-2,-2,-14,-9,-11,-5,-1,0,2021-08-07 13:02:37.675657
0,0,3,9,11,3,1,0,2021-08-07 13:02:37.676655
-3,-2,-2,1,-10,-7,-4,-3,2021-08-07 13:02:37.676655
-2,-3,-3,-4,-6,-5,-3,0,2021-08-07 13:02:37.697656
5,10,17,21,28,18,8,5,2021-08-07 13:02:37.697656
0,1,-3,-3,-12,-8,-2,-2,2021-08-07 13:02:37.699655
-1,0,-4,-11,6,8,3,0,2021-08-07 13:02:37.699655
-4,-6,-4,-4,-4,-7,-4,-2,2021-08-07 13:02:37.712658
-5,-7,-10,-11,-12,-11,-6,-2,2021-08-07 13:02:37.712658
-2,0,0,-2,-2,-1,0,0,2021-08-07 13:02:37.718655
-4,-3,2,4,-11,-8,-6,-5,2021-08-07 13:02:37.719655
7,11,6,21,27,18,10,7,2021-08-07 13:02:37.734654
0,-1,-2,-5,-6,-6,-1,0,2021-08-07 13:02:37.735661
-3,-4,-5,-20,-19,-10,-7,-4,2021-08-07 13:02:37.736655
0,-1,2,8,16,9,3,1,2021-08-07 13:02:37.736655
-3,-5,-5,-2,-5,-6,-5,-3,2021-08-07 13:02:37.757654
0,-2,3,5,3,1,-1,-1,2021-08-07 13:02:37.757654
-3,-4,-4,-6,-3,0,-2,-2,2021-08-07 13:02:37.759657
-2,-4,-6,-3,-10,-6,-4,-4,2021-08-07 13:02:37.759657
7,12,12,8,-1,0,4,6,2021-08-07 13:02:37.771654
2,3,7,17,26,13,5,3,2021-08-07 13:02:37.772655
-1,0,1,8,7,2,0,0,2021-08-07 13:02:37.778652
0,3,0,-6,5,4,2,2,2021-08-07 13:02:37.778652
-3,-4,-8,-5,-9,-5,-3,-3,2021-08-07 13:02:37.802655
-8,-11,-10,-35,-35,-19,-10,-8,2021-08-07 13:02:37.802655
-1,-2,0,2,-1,-3,-2,-1,2021-08-07 13:02:37.804656
1,1,4,12,6,3,1,1,2021-08-07 13:02:37.804656
-1,-1,-1,1,1,-1,-1,-1,2021-08-07 13:02:37.817656
0,-1,0,0,-2,1,0,0,2021-08-07 13:02:37.818656
2,2,7,15,14,8,3,1,2021-08-07 13:02:37.819657
5,7,8,16,16,8,5,3,2021-08-07 13:02:37.819657
-1,-4,-7,-17,-10,-4,-3,-1,2021-08-07 13:02:37.839655
-6,-10,-14,-26,-24,-13,-10,-6,2021-08-07 13:02:37.840657
-5,-5,-5,-8,-6,-5,-4,-3,2021-08-07 13:02:37.841654
1,0,3,6,5,2,0,-1,2021-08-07 13:02:37.841654
1,1,3,7,3,1,0,0,2021-08-07 13:02:37.855658
2,2,2,15,6,0,1,2,2021-08-07 13:02:37.855658
1,0,-1,3,0,0,-1,1,2021-08-07 13:02:37.856658
1,3,3,4,9,5,3,3,2021-08-07 13:02:37.856658
1,1,0,4,5,5,4,0,2021-08-07 13:02:37.877655
-5,-3,-2,-23,-12,-6,-5,-3,2021-08-07 13:02:37.877655
-4,-5,-11,-20,-23,-13,-7,-4,2021-08-07 13:02:37.879657
-4,-6,-4,0,-1,0,1,-1,2021-08-07 13:02:37.879657
1,1,-1,3,-4,-3,-1,0,2021-08-07 13:02:37.891655
3,5,6,5,5,3,3,2,2021-08-07 13:02:37.892654
0,0,2,2,11,5,1,1,2021-08-07 13:02:37.898654
-1,-2,1,-1,-2,-3,-1,-2,2021-08-07 13:02:37.898654
0,-1,1,3,2,-1,-2,-1,2021-08-07 13:02:37.914658
1,-1,-1,-2,-10,-1,0,-1,2021-08-07 13:02:37.915655
-4,-6,-10,-20,-13,-5,-3,-3,2021-08-07 13:02:37.916655
-1,-2,-4,-16,-21,-10,-4,-1,2021-08-07 13:02:37.916655
2,2,6,19,25,11,5,2,2021-08-07 13:02:37.937655
3,2,6,18,24,10,5,3,2021-08-07 13:02:37.937655
2,4,5,10,14,9,5,3,2021-08-07 13:02:37.939656
2,3,3,4,-1,-2,-1,1,2021-08-07 13:02:37.939656
-6,-6,-6,-8,-16,-9,-5,-6,2021-08-07 13:02:37.951656
-4,-3,-9,-28,-24,-15,-7,-3,2021-08-07 13:02:37.951656
2,-1,1,0,1,6,3,2,2021-08-07 13:02:37.960656
-1,-2,-1,5,12,4,0,0,2021-08-07 13:02:37.960656
0,-2,-1,4,-3,-4,-3,0,2021-08-07 13:02:37.975655
1,1,2,8,10,5,3,2,2021-08-07 13:02:37.975655
0,1,3,0,-7,-7,-3,-1,2021-08-07 13:02:37.976655
-2,-2,-8,-8,-10,-4,-4,-2,2021-08-07 13:02:37.976655
-1,-2,-4,-3,4,4,2,-2,2021-08-07 13:02:37.997655
0,1,-1,2,-2,0,0,0,2021-08-07 13:02:37.997655
-1,-3,-3,-10,-2,-3,-2,0,2021-08-07 13:02:37.999654
3,5,7,0,0,1,3,3,2021-08-07 13:02:37.999654
1,2,2,5,15,9,3,1,2021-08-07 13:02:38.011655
-3,-3,-2,2,-9,-8,-4,-3,2021-08-07 13:02:38.011655
1,3,4,13,14,8,6,2,2021-08-07 13:02:38.020654
-2,-5,-6,-8,-12,-10,-5,-1,2021-08-07 13:02:38.020654
-5,-9,-8,-12,-14,-10,-8,-5,2021-08-07 13:02:38.035654
4,7,9,7,20,13,7,4,2021-08-07 13:02:38.035654
-2,-1,2,-10,-5,-3,-5,-3,2021-08-07 13:02:38.036654
-3,-3,-7,-7,-6,-3,-3,-3,2021-08-07 13:02:38.036654
-4,-6,-8,-6,-12,-11,-6,-4,2021-08-07 13:02:38.065655
-2,-1,-1,13,4,1,0,-1,2021-08-07 13:02:38.065655
0,1,1,9,8,3,1,0,2021-08-07 13:02:38.066655
1,1,4,-2,5,3,2,2,2021-08-07 13:02:38.066655
2,5,5,5,-2,-2,0,3,2021-08-07 13:02:38.071654
0,-2,-1,4,1,2,-1,-1,2021-08-07 13:02:38.071654
-3,-6,-12,-32,-21,-11,-4,-5,2021-08-07 13:02:38.080655
-2,-3,0,3,1,0,-2,-3,2021-08-07 13:02:38.080655
-1,-1,-1,-3,2,0,-1,-1,2021-08-07 13:02:38.095653
2,2,5,17,12,4,3,2,2021-08-07 13:02:38.095653
-2,1,2,8,-3,-2,-1,0,2021-08-07 13:02:38.096655
2,3,4,16,15,8,3,0,2021-08-07 13:02:38.096655
-1,-2,-4,-15,-15,-10,-4,-3,2021-08-07 13:02:38.117654
-1,-2,-1,-1,-9,-5,-3,-1,2021-08-07 13:02:38.117654
-1,-1,-4,0,11,6,1,0,2021-08-07 13:02:38.119655
0,-1,-5,-12,-6,-1,0,-1,2021-08-07 13:02:38.119655
-2,2,5,8,13,8,4,1,2021-08-07 13:02:38.131654
-4,-5,-5,-6,-15,-11,-4,-3,2021-08-07 13:02:38.131654
0,-1,-1,1,-2,-2,-3,-1,2021-08-07 13:02:38.140658
1,0,1,6,3,1,1,0,2021-08-07 13:02:38.140658
-1,0,0,0,5,2,0,-2,2021-08-07 13:02:38.155654
0,2,2,0,-2,1,0,0,2021-08-07 13:02:38.155654
-1,-1,1,3,5,1,1,-1,2021-08-07 13:02:38.156656
-1,0,-5,-4,-3,-3,-1,-1,2021-08-07 13:02:38.156656
1,1,0,-5,-2,0,-1,1,2021-08-07 13:02:38.177655
-2,-4,-4,-7,-5,-6,-3,-3,2021-08-07 13:02:38.177655
-3,-3,-3,-3,-15,-10,-5,-4,2021-08-07 13:02:38.179656
-5,-8,-6,3,12,6,0,-2,2021-08-07 13:02:38.179656
6,9,10,7,8,6,4,5,2021-08-07 13:02:38.191654
-2,0,-3,-5,0,-2,0,-1,2021-08-07 13:02:38.191654
4,5,6,5,9,6,4,4,2021-08-07 13:02:38.200655
-4,-6,-6,-24,-20,-12,-7,-7,2021-08-07 13:02:38.200655
-4,-7,-2,-4,-11,-7,-2,-3,2021-08-07 13:02:38.214654
-1,-6,-10,-1,-1,0,-3,0,2021-08-07 13:02:38.215656
2,2,2,13,5,2,0,2,2021-08-07 13:02:38.216655
8,11,11,27,38,22,12,9,2021-08-07 13:02:38.216655
-4,-6,-6,-15,-6,-3,-3,-3,2021-08-07 13:02:38.237655
-1,0,2,-5,-12,-9,-6,-4,2021-08-07 13:02:38.238659
-2,-3,-4,-5,-8,-5,-3,-3,2021-08-07 13:02:38.239655
-1,1,3,5,-5,-6,-3,-1,2021-08-07 13:02:38.239655
4,3,5,8,7,5,4,2,2021-08-07 13:02:38.251656
-1,-1,-1,1,5,3,1,-1,2021-08-07 13:02:38.251656
-1,1,-5,-20,-14,-5,-2,-1,2021-08-07 13:02:38.260654
1,-1,1,-1,-6,-2,-2,-1,2021-08-07 13:02:38.260654
2,1,0,6,3,0,-2,1,2021-08-07 13:02:38.274653
-2,-3,-6,-5,-5,-5,-4,-2,2021-08-07 13:02:38.275655
-1,-2,-3,1,1,1,1,-2,2021-08-07 13:02:38.276655
3,1,2,4,5,3,5,2,2021-08-07 13:02:38.276655
-6,-6,-10,-26,-22,-12,-5,-5,2021-08-07 13:02:38.297654
-2,-3,-1,1,4,2,-1,-2,2021-08-07 13:02:38.297654
0,-1,3,12,19,10,3,-1,2021-08-07 13:02:38.299655
-2,-3,-4,-8,-9,-6,-4,-4,2021-08-07 13:02:38.299655
0,0,-4,5,0,0,-1,0,2021-08-07 13:02:38.311654
3,5,6,10,10,3,2,3,2021-08-07 13:02:38.311654
-2,0,-2,0,-8,-8,-4,-2,2021-08-07 13:02:38.320654
1,3,3,7,15,13,4,4,2021-08-07 13:02:38.320654
0,-1,0,0,-7,-3,0,1,2021-08-07 13:02:38.342655
-4,-6,-9,-21,-13,-6,-3,-3,2021-08-07 13:02:38.342655
-3,-6,-7,-9,-11,-5,-5,-3,2021-08-07 13:02:38.344655
1,2,1,4,1,0,2,0,2021-08-07 13:02:38.344655
0,2,2,5,6,3,-1,-2,2021-08-07 13:02:38.357656
1,3,5,12,7,2,2,2,2021-08-07 13:02:38.357656
0,-1,0,1,-5,-3,-3,0,2021-08-07 13:02:38.359656
-4,-6,-8,-17,-24,-14,-7,-4,2021-08-07 13:02:38.359656
1,0,-2,-5,6,5,3,0,2021-08-07 13:02:38.379656
0,-3,-2,-11,-15,-8,-4,-3,2021-08-07 13:02:38.380657
-3,-7,-4,7,12,5,0,-2,2021-08-07 13:02:38.381655
8,16,12,14,11,6,5,6,2021-08-07 13:02:38.381655
0,2,0,0,7,2,1,1,2021-08-07 13:02:38.395654
-4,-6,-3,1,-1,-1,-2,-4,2021-08-07 13:02:38.395654
-3,-4,-6,-19,-14,-8,-3,-3,2021-08-07 13:02:38.396656
-2,-5,-3,-2,-8,-1,-2,-2,2021-08-07 13:02:38.397657
3,3,5,17,17,10,5,2,2021-08-07 13:02:38.418656
1,2,1,1,-1,-1,1,-1,2021-08-07 13:02:38.418656
0,-2,-2,-8,-3,-3,-3,-2,2021-08-07 13:02:38.419654
-1,-5,-2,5,7,3,1,0,2021-08-07 13:02:38.419654
2,2,1,-4,-11,-6,-2,2,2021-08-07 13:02:38.440656
-3,-5,-2,-4,-1,1,-2,-2,2021-08-07 13:02:38.440656
0,4,3,8,6,5,3,1,2021-08-07 13:02:38.441654
-1,0,-2,-4,-8,-7,-4,-1,2021-08-07 13:02:38.441654
-1,-3,-4,-10,-8,-1,-1,-3,2021-08-07 13:02:38.455656
0,-1,-2,1,-7,-6,-3,-1,2021-08-07 13:02:38.455656
4,6,6,18,29,19,10,3,2021-08-07 13:02:38.456655
-4,-4,-5,-10,-8,-6,-4,-2,2021-08-07 13:02:38.456655
-4,-3,2,5,6,5,0,0,2021-08-07 13:02:38.477654
-1,-2,-4,-14,-10,-7,-3,-1,2021-08-07 13:02:38.477654
2,1,-3,-6,-15,-8,-4,-1,2021-08-07 13:02:38.478654
3,2,4,11,15,9,5,2,2021-08-07 13:02:38.479654
-2,1,0,6,0,-5,-3,-2,2021-08-07 13:02:38.499655
-3,-2,-7,3,2,1,-2,-2,2021-08-07 13:02:38.500653
-2,-3,-2,-13,-12,-9,-2,-2,2021-08-07 13:02:38.501655
-3,-6,-3,-15,-12,-6,-3,-4,2021-08-07 13:02:38.501655
0,-1,-1,-3,-4,-2,0,-3,2021-08-07 13:02:38.514657
-1,-3,1,5,5,2,0,-2,2021-08-07 13:02:38.514657
1,2,1,6,4,1,0,2,2021-08-07 13:02:38.521654
-1,1,-2,-1,-1,0,-1,-3,2021-08-07 13:02:38.521654
2,2,3,7,5,1,3,1,2021-08-07 13:02:38.537654
-2,0,0,2,2,1,-1,-1,2021-08-07 13:02:38.537654
-5,-4,-7,-19,-21,-10,-6,-4,2021-08-07 13:02:38.539655
5,3,5,15,19,10,7,4,2021-08-07 13:02:38.539655
